{
  "AcquisitionMatrixPE": 110,
  "AcquisitionNumber": 1,
  "AcquisitionTime": "15:22:27.912500",
  "BandwidthPerPixelPhaseEncode": 12.987,
  "BaseResolution": 110,
  "BodyPartExamined": "BRAIN",
  "CoilCombinationMethod": "Sum of Squares",
  "ConsistencyInfo": "N4_VE11C_LATEST_20160120",
  "ConversionSoftware": "dcm2niix",
  "ConversionSoftwareVersion": "v1.0.20211006",
  "DerivedVendorReportedEchoSpacing": 0.000700001,
  "DeviceSerialNumber": "167006",
  "DiffusionScheme": "Monopolar",
  "DwellTime": 2.7e-06,
  "EchoTime": 0.0816,
  "EchoTrainLength": 83,
  "EffectiveEchoSpacing": 0.000700001,
  "FlipAngle": 78,
  "HeudiconvVersion": "0.5.3.post569+g418601f",
  "ImageComments": "Unaliased MB3/PE3/LB SENSE1",
  "ImageOrientationPatientDICOM": [1, 0, 0, 0, 0.901833, -0.432086],
  "ImageOrientationText": "Tra>Cor(-25.6)",
  "ImageType": [
    "ORIGINAL",
    "PRIMARY",
    "DIFFUSION",
    "NONE",
    "MB",
    "ND",
    "MOSAIC"
],
  "ImagingFrequency": 123.259,
  "InPlanePhaseEncodingDirectionDICOM": "COL",
  "InstitutionAddress": "Chemin Queen-Mary 4565,Montreal,District,CA,H3W 1W5",
  "InstitutionName": "IUGM",
  "InstitutionalDepartmentName": "Department",
  "MRAcquisitionType": "2D",
  "MagneticFieldStrength": 3,
  "Manufacturer": "Siemens",
  "ManufacturersModelName": "Prisma_fit",
  "MatrixCoilMode": "SENSE",
  "Modality": "MR",
  "MultibandAccelerationFactor": 3,
  "PartialFourier": 0.75,
  "PatientPosition": "HFS",
  "PercentPhaseFOV": 100,
  "PercentSampling": 100,
  "PhaseEncodingDirection": "j-",
  "PhaseEncodingSteps": 83,
  "PhaseResolution": 1,
  "PixelBandwidth": 1685,
  "ProcedureStepDescription": "anat^generic",
  "ProtocolName": "dMRI_dir98_AP_test_cmrr",
  "PulseSequenceDetails": "%CustomerSeq%\\cmrr_mbep2d_diff",
  "ReceiveCoilActiveElements": "HC1-6",
  "ReceiveCoilName": "HeadNeck_64",
  "ReconMatrixPE": 110,
  "RepetitionTime": 2.334,
  "SAR": 0.138955,
  "ScanOptions": "PFP\\EXT",
  "ScanningSequence": "EP",
  "SequenceName": "ep_b5#1",
  "SequenceVariant": "SK\\SS",
  "SeriesDescription": "dMRI_dir98_AP_test_cmrr",
  "SeriesNumber": 7,
  "ShimSetting": [619, -7217, -8849, 376, -21, -130, 34, -15],
  "SliceThickness": 2,
  "SliceTiming": [0, 1.2175, 0.1225, 1.34, 0.2425, 1.46, 0.365, 1.5825, 0.4875, 1.705, 0.6075, 1.825, 0.73, 1.9475, 0.8525, 2.07, 0.975, 2.1925, 1.095, 0, 1.2175, 0.1225, 1.34, 0.2425, 1.46, 0.365, 1.5825, 0.4875, 1.705, 0.6075, 1.825, 0.73, 1.9475, 0.8525, 2.07, 0.975, 2.1925, 1.095, 0, 1.2175, 0.1225, 1.34, 0.2425, 1.46, 0.365, 1.5825, 0.4875, 1.705, 0.6075, 1.825, 0.73, 1.9475, 0.8525, 2.07, 0.975, 2.1925, 1.095],
  "SoftwareVersions": "syngo MR E11",
  "SpacingBetweenSlices": 2,
  "StationName": "MRC35049",
  "TotalReadoutTime": 0.0763001,
  "TxRefAmp": 251.229,
  "WipMemBlock": "206eabb8-3d8c-4a95-a656-2022e6d12b74||Sequence: R016 ve11c/master r/e634e98; Dec 19 2017 11:11:25 by eja",
  "dcmmeta_affine": [
    [-2.0, 0.0, 0.0, 109.49686431884766],
    [0.0, 1.803665041923523, -0.8641715049743652, -75.27884674072266],
    [0.0, 0.8641714453697205, 1.803665041923523, -79.64385223388672],
    [0.0, 0.0, 0.0, 1.0]
],
  "dcmmeta_reorient_transform": [
    [0.0, -1.0, 0.0, 109.0],
    [1.0, 0.0, 0.0, 0.0],
    [0.0, 0.0, 1.0, 0.0],
    [0.0, 0.0, 0.0, 1.0]
],
  "dcmmeta_shape": [110, 110, 57, 99],
  "dcmmeta_slice_dim": 2,
  "dcmmeta_version": 0.6,
  "global": {
    "const": {
      "AcquisitionMatrix": [110, 0, 0, 110],
      "AngioFlag": "N",
      "BitsAllocated": 16,
      "BitsStored": 16,
      "BodyPartExamined": "BRAIN",
      "CardiacNumberOfImages": 1,
      "Columns": 880,
      "EchoNumbers": 1,
      "EchoTime": 81.6,
      "EchoTrainLength": 83,
      "FlipAngle": 78.0,
      "HighBit": 15,
      "ImageOrientationPatient": [1.0, 0.0, 0.0, 0.0, 0.90183253213068, -0.4320857368518],
      "ImagePositionPatient": [-879.49686384201, -815.7316983281, 347.25685269593],
      "ImageType": [
        "ORIGINAL",
        "PRIMARY",
        "DIFFUSION",
        "NONE",
        "MB",
        "ND",
        "MOSAIC"
],
      "ImagedNucleus": "1H",
      "ImagingFrequency": 123.258943,
      "InPlanePhaseEncodingDirection": "COL",
      "MRAcquisitionType": "2D",
      "MagneticFieldStrength": 3.0,
      "Manufacturer": "SIEMENS",
      "ManufacturerModelName": "Prisma_fit",
      "Modality": "MR",
      "NominalInterval": 0,
      "NumberOfAverages": 1.0,
      "NumberOfPhaseEncodingSteps": 83,
      "PercentPhaseFieldOfView": 100.0,
      "PercentSampling": 100.0,
      "PerformedProcedureStepStartTime": "150046.002000",
      "PhotometricInterpretation": "MONOCHROME2",
      "PixelBandwidth": 1685.0,
      "PixelRepresentation": 0,
      "PixelSpacing": [2.0, 2.0],
      "ProtocolName": "dMRI_dir98_AP_test_cmrr",
      "RepetitionTime": 2334.0,
      "Rows": 880,
      "SAR": 0.13895492835641,
      "SamplesPerPixel": 1,
      "ScanOptions": [
        "PFP",
        "EXT"
],
      "ScanningSequence": "EP",
      "SequenceVariant": [
        "SK",
        "SS"
],
      "SeriesDescription": "dMRI_dir98_AP_test_cmrr",
      "SeriesNumber": 7,
      "SeriesTime": "152332.973000",
      "SliceLocation": -39.298505178955,
      "SliceThickness": 2.0,
      "SmallestImagePixelValue": 0,
      "SoftwareVersions": "syngo MR E11",
      "SpacingBetweenSlices": 2.000000039441,
      "SpecificCharacterSet": "ISO_IR 100",
      "StudyID": "1",
      "StudyTime": "150045.884000",
      "TransmitCoilName": "Body",
      "VariableFlipAngleFlag": "N",
      "WindowCenterWidthExplanation": "Algo1",
      "dBdt": 0.0},
    "slices": {}
  },
  "time": {
    "samples": {
      "AcquisitionNumber": [1, 2, 3, 4, 5, 6, 7, 8, 9, 10, 11, 12, 13, 14, 15, 16, 17, 18, 19, 20, 21, 22, 23, 24, 25, 26, 27, 28, 29, 30, 31, 32, 33, 34, 35, 36, 37, 38, 39, 40, 41, 42, 43, 44, 45, 46, 47, 48, 49, 50, 51, 52, 53, 54, 55, 56, 57, 58, 59, 60, 61, 62, 63, 64, 65, 66, 67, 68, 69, 70, 71, 72, 73, 74, 75, 76, 77, 78, 79, 80, 81, 82, 83, 84, 85, 86, 87, 88, 89, 90, 91, 92, 93, 94, 95, 96, 97, 98, 99],
      "AcquisitionTime": ["152227.912500", "152230.245000", "152232.580000", "152234.915000", "152237.247500", "152239.582500", "152241.915000", "152244.250000", "152246.585000", "152248.917500", "152251.252500", "152253.585000", "152255.920000", "152258.255000", "152300.587500", "152302.922500", "152305.255000", "152307.590000", "152309.925000", "152312.257500", "152314.592500", "152316.925000", "152319.260000", "152321.595000", "152323.927500", "152326.262500", "152328.595000", "152330.930000", "152333.265000", "152335.597500", "152337.932500", "152340.265000", "152342.600000", "152344.935000", "152347.267500", "152349.602500", "152351.935000", "152354.270000", "152356.605000", "152358.937500", "152401.272500", "152403.605000", "152405.940000", "152408.275000", "152410.607500", "152412.942500", "152415.275000", "152417.610000", "152419.945000", "152422.277500", "152424.612500", "152426.945000", "152429.280000", "152431.615000", "152433.947500", "152436.282500", "152438.615000", "152440.950000", "152443.285000", "152445.617500", "152447.952500", "152450.285000", "152452.620000", "152454.955000", "152457.287500", "152459.622500", "152501.955000", "152504.290000", "152506.625000", "152508.957500", "152511.292500", "152513.625000", "152515.960000", "152518.295000", "152520.627500", "152522.962500", "152525.295000", "152527.630000", "152529.965000", "152532.297500", "152534.632500", "152536.965000", "152539.300000", "152541.635000", "152543.967500", "152546.302500", "152548.635000", "152550.970000", "152553.305000", "152555.637500", "152557.972500", "152600.305000", "152602.640000", "152604.975000", "152607.307500", "152609.642500", "152611.975000", "152614.310000", "152616.645000"],
      "ContentTime": ["152332.976000", "152332.983000", "152332.986000", "152332.990000", "152333.002000", "152333.005000", "152333.008000", "152333.011000", "152333.014000", "152333.017000", "152333.020000", "152333.023000", "152333.026000", "152333.029000", "152333.032000", "152333.035000", "152333.039000", "152333.042000", "152333.045000", "152333.048000", "152333.051000", "152333.054000", "152333.057000", "152333.064000", "152333.067000", "152333.070000", "152333.073000", "152352.941000", "152352.944000", "152352.948000", "152352.951000", "152352.954000", "152352.956000", "152352.960000", "152352.963000", "152352.966000", "152452.941000", "152452.944000", "152452.947000", "152452.951000", "152452.954000", "152452.957000", "152452.960000", "152452.963000", "152452.966000", "152452.969000", "152452.972000", "152452.975000", "152452.978000", "152452.981000", "152452.984000", "152452.988000", "152452.991000", "152452.994000", "152452.997000", "152453.001000", "152453.013000", "152453.016000", "152453.019000", "152453.022000", "152453.025000", "152552.941000", "152552.945000", "152552.948000", "152552.951000", "152552.955000", "152552.958000", "152552.961000", "152552.965000", "152552.968000", "152552.971000", "152552.975000", "152552.978000", "152552.981000", "152552.984000", "152552.988000", "152552.991000", "152552.995000", "152552.998000", "152553.003000", "152553.014000", "152553.018000", "152553.021000", "152553.024000", "152553.027000", "152553.031000", "152553.034000", "152621.576000", "152621.579000", "152621.590000", "152621.593000", "152621.596000", "152621.600000", "152621.607000", "152621.610000", "152621.614000", "152621.617000", "152621.621000", "152621.625000"],
      "InstanceCreationTime": ["152332.976000", "152332.983000", "152332.986000", "152332.990000", "152333.002000", "152333.005000", "152333.008000", "152333.011000", "152333.014000", "152333.017000", "152333.020000", "152333.023000", "152333.026000", "152333.029000", "152333.032000", "152333.035000", "152333.039000", "152333.042000", "152333.045000", "152333.048000", "152333.051000", "152333.054000", "152333.057000", "152333.064000", "152333.067000", "152333.070000", "152333.073000", "152352.941000", "152352.944000", "152352.948000", "152352.951000", "152352.954000", "152352.956000", "152352.960000", "152352.963000", "152352.966000", "152452.941000", "152452.944000", "152452.947000", "152452.951000", "152452.954000", "152452.957000", "152452.960000", "152452.963000", "152452.966000", "152452.969000", "152452.972000", "152452.975000", "152452.978000", "152452.981000", "152452.984000", "152452.988000", "152452.991000", "152452.994000", "152452.997000", "152453.001000", "152453.013000", "152453.016000", "152453.019000", "152453.022000", "152453.025000", "152552.941000", "152552.945000", "152552.948000", "152552.951000", "152552.955000", "152552.958000", "152552.961000", "152552.965000", "152552.968000", "152552.971000", "152552.975000", "152552.978000", "152552.981000", "152552.984000", "152552.988000", "152552.991000", "152552.995000", "152552.998000", "152553.003000", "152553.014000", "152553.018000", "152553.021000", "152553.024000", "152553.027000", "152553.031000", "152553.034000", "152621.576000", "152621.579000", "152621.590000", "152621.593000", "152621.596000", "152621.600000", "152621.607000", "152621.610000", "152621.614000", "152621.617000", "152621.621000", "152621.625000"],
      "InstanceNumber": [1, 2, 3, 4, 5, 6, 7, 8, 9, 10, 11, 12, 13, 14, 15, 16, 17, 18, 19, 20, 21, 22, 23, 24, 25, 26, 27, 28, 29, 30, 31, 32, 33, 34, 35, 36, 37, 38, 39, 40, 41, 42, 43, 44, 45, 46, 47, 48, 49, 50, 51, 52, 53, 54, 55, 56, 57, 58, 59, 60, 61, 62, 63, 64, 65, 66, 67, 68, 69, 70, 71, 72, 73, 74, 75, 76, 77, 78, 79, 80, 81, 82, 83, 84, 85, 86, 87, 88, 89, 90, 91, 92, 93, 94, 95, 96, 97, 98, 99],
      "LargestImagePixelValue": [51588, 50585, 10461, 3779, 9170, 4195, 8857, 5178, 9307, 5593, 10466, 3597, 8283, 5409, 9882, 5795, 9277, 48849, 4997, 9308, 4097, 8311, 4306, 10218, 4017, 9588, 5126, 8904, 4729, 8547, 5441, 9700, 3866, 49024, 9091, 4725, 10561, 5263, 8849, 3704, 8603, 4222, 9599, 4436, 9790, 4161, 9489, 5092, 10213, 48888, 5245, 8049, 4315, 10271, 5489, 8569, 4146, 8563, 4760, 9588, 4914, 10256, 5419, 8192, 4321, 48240, 9806, 4796, 9092, 3796, 8932, 4661, 9053, 5695, 9506, 4802, 9932, 3683, 8099, 5346, 9329, 48889, 4137, 8847, 4366, 8471, 5235, 10136, 3699, 10034, 5549, 10069, 3626, 8665, 5604, 8700, 4735, 10309, 3699],
      "SequenceName": [
 "ep_b5#1",
 "ep_b5#1",
 "ep_b1490#2",
 "ep_b2990#3",
 "ep_b1495#4",
 "ep_b3005#5",
 "ep_b1500#6",
 "ep_b2985#7",
 "ep_b1495#8",
 "ep_b3005#9",
 "ep_b1490#10",
 "ep_b2995#11",
 "ep_b1495#12",
 "ep_b2990#13",
 "ep_b1500#14",
 "ep_b2985#15",
 "ep_b1500#16",
 "ep_b5#17",
 "ep_b3005#18",
 "ep_b1495#19",
 "ep_b2995#20",
 "ep_b1495#21",
 "ep_b3000#22",
 "ep_b1495#23",
 "ep_b3000#24",
 "ep_b1490#25",
 "ep_b2985#26",
 "ep_b1505#27",
 "ep_b2990#28",
 "ep_b1495#29",
 "ep_b3000#30",
 "ep_b1490#31",
 "ep_b3000#32",
 "ep_b5#33",
 "ep_b1505#34",
 "ep_b3000#35",
 "ep_b1490#36",
 "ep_b2985#37",
 "ep_b1495#38",
 "ep_b2995#39",
 "ep_b1500#40",
 "ep_b2995#41",
 "ep_b1500#42",
 "ep_b2990#43",
 "ep_b1495#44",
 "ep_b3000#45",
 "ep_b1495#46",
 "ep_b3000#47",
 "ep_b1490#48",
 "ep_b5#49",
 "ep_b3000#50",
 "ep_b1495#51",
 "ep_b2995#52",
 "ep_b1505#53",
 "ep_b2995#54",
 "ep_b1490#55",
 "ep_b2990#56",
 "ep_b1490#57",
 "ep_b2995#58",
 "ep_b1500#59",
 "ep_b3000#60",
 "ep_b1500#61",
 "ep_b2985#62",
 "ep_b1500#63",
 "ep_b2990#64",
 "ep_b5#65",
 "ep_b1505#66",
 "ep_b3005#67",
 "ep_b1495#68",
 "ep_b3000#69",
 "ep_b1505#70",
 "ep_b3005#71",
 "ep_b1500#72",
 "ep_b3005#73",
 "ep_b1495#74",
 "ep_b2995#75",
 "ep_b1495#76",
 "ep_b2995#77",
 "ep_b1500#78",
 "ep_b3000#79",
 "ep_b1490#80",
 "ep_b5#81",
 "ep_b2990#82",
 "ep_b1500#83",
 "ep_b2985#84",
 "ep_b1495#85",
 "ep_b2995#86",
 "ep_b1495#87",
 "ep_b2990#88",
 "ep_b1490#89",
 "ep_b2985#90",
 "ep_b1495#91",
 "ep_b2995#92",
 "ep_b1495#93",
 "ep_b3005#94",
 "ep_b1495#95",
 "ep_b2990#96",
 "ep_b1500#97",
 "ep_b3000#98"
],
      "TriggerTime": [13297.5, 15630.0, 17965.0, 20297.5, 22632.5, 24967.5, 27300.0, 29635.0, 31967.5, 34302.5, 36637.5, 38970.0, 41305.0, 43637.5, 45972.5, 48307.5, 50640.0, 52975.0, 55307.5, 57642.5, 59977.5, 62310.0, 64645.0, 66977.5, 69312.5, 71647.5, 73980.0, 76315.0, 78647.5, 80982.5, 83317.5, 85650.0, 87985.0, 90317.5, 92652.5, 94987.5, 97320.0, 99655.0, 101987.5, 104322.5, 106657.5, 108990.0, 111325.0, 113657.5, 115992.5, 118327.5, 120660.0, 122995.0, 125327.5, 127662.5, 129997.5, 132330.0, 134665.0, 136997.5, 139332.5, 141667.5, 144000.0, 146335.0, 148667.5, 151002.5, 153337.5, 155670.0, 158005.0, 160337.5, 162672.5, 165007.5, 167340.0, 169675.0, 172007.5, 174342.5, 176677.5, 179010.0, 181345.0, 183677.5, 186012.5, 188347.5, 190680.0, 193015.0, 195347.5, 197682.5, 200017.5, 202350.0, 204685.0, 207017.5, 209352.5, 211687.5, 214020.0, 216355.0, 218687.5, 221022.5, 223357.5, 225690.0, 228025.0, 230357.5, 232692.5, 235027.5, 237360.0, 239695.0, 242027.5],
      "WindowCenter": [7448.0, 7448.0, 2594.0, 1445.0, 2613.0, 1474.0, 2565.0, 1506.0, 2573.0, 1508.0, 2580.0, 1428.0, 2602.0, 1548.0, 2578.0, 1561.0, 2569.0, 7306.0, 1516.0, 2586.0, 1458.0, 2535.0, 1481.0, 2593.0, 1482.0, 2551.0, 1513.0, 2565.0, 1547.0, 2562.0, 1537.0, 2611.0, 1453.0, 7337.0, 2566.0, 1488.0, 2578.0, 1508.0, 2530.0, 1466.0, 2548.0, 1446.0, 2547.0, 1495.0, 2596.0, 1444.0, 2550.0, 1546.0, 2603.0, 7376.0, 1513.0, 2555.0, 1485.0, 2562.0, 1568.0, 2549.0, 1497.0, 2573.0, 1486.0, 2608.0, 1488.0, 2561.0, 1511.0, 2563.0, 1499.0, 7286.0, 2578.0, 1521.0, 2599.0, 1444.0, 2548.0, 1502.0, 2557.0, 1521.0, 2549.0, 1524.0, 2601.0, 1464.0, 2571.0, 1531.0, 2533.0, 7369.0, 1478.0, 2554.0, 1456.0, 2586.0, 1540.0, 2577.0, 1431.0, 2563.0, 1525.0, 2590.0, 1441.0, 2611.0, 1561.0, 2537.0, 1530.0, 2606.0, 1448.0],
      "WindowWidth": [16377.0, 16388.0, 6246.0, 3790.0, 6301.0, 3854.0, 6193.0, 3933.0, 6212.0, 3913.0, 6214.0, 3780.0, 6284.0, 4024.0, 6226.0, 4044.0, 6203.0, 16065.0, 3943.0, 6245.0, 3823.0, 6132.0, 3890.0, 6240.0, 3889.0, 6162.0, 3928.0, 6188.0, 4037.0, 6188.0, 3999.0, 6287.0, 3825.0, 16125.0, 6191.0, 3886.0, 6209.0, 3912.0, 6115.0, 3855.0, 6156.0, 3799.0, 6152.0, 3914.0, 6252.0, 3786.0, 6155.0, 4036.0, 6257.0, 16197.0, 3926.0, 6175.0, 3901.0, 6181.0, 4072.0, 6163.0, 3928.0, 6225.0, 3879.0, 6277.0, 3888.0, 6188.0, 3921.0, 6200.0, 3931.0, 16027.0, 6204.0, 3964.0, 6264.0, 3794.0, 6148.0, 3915.0, 6192.0, 3933.0, 6157.0, 3976.0, 6270.0, 3850.0, 6215.0, 3978.0, 6122.0, 16180.0, 3866.0, 6176.0, 3805.0, 6247.0, 4017.0, 6205.0, 3767.0, 6184.0, 3951.0, 6237.0, 3802.0, 6297.0, 4044.0, 6144.0, 4000.0, 6273.0, 3807.0]
    },
    "slices": {}
  }
}