{
  "AcquisitionMatrixPE": 110,
  "AcquisitionNumber": 1,
  "AcquisitionTime": "16:36:13.907500",
  "BandwidthPerPixelPhaseEncode": 12.987,
  "BaseResolution": 110,
  "BodyPartExamined": "BRAIN",
  "CoilCombinationMethod": "Sum of Squares",
  "ConsistencyInfo": "N4_VE11C_LATEST_20160120",
  "ConversionSoftware": "dcm2niix",
  "ConversionSoftwareVersion": "v1.0.20211006",
  "DerivedVendorReportedEchoSpacing": 0.000700001,
  "DeviceSerialNumber": "167006",
  "DiffusionScheme": "Monopolar",
  "DwellTime": 2.7e-06,
  "EchoTime": 0.0768,
  "EchoTrainLength": 83,
  "EffectiveEchoSpacing": 0.000700001,
  "FlipAngle": 78,
  "HeudiconvVersion": "0.5.3.post569+g418601f",
  "ImageComments": "Unaliased MB3/PE3/LB SENSE1+",
  "ImageOrientationPatientDICOM": [0.999976, 0.00186562, 0.00672736, 4.22345e-08, 0.96363, -0.267238],
  "ImageOrientationText": "Tra>Cor(-15.5)>Sag(0.4)",
  "ImageType": [
    "ORIGINAL",
    "PRIMARY",
    "DIFFUSION",
    "NONE",
    "MB",
    "ND",
    "MOSAIC"
],
  "ImagingFrequency": 123.259,
  "InPlanePhaseEncodingDirectionDICOM": "COL",
  "InstitutionAddress": "Chemin Queen-Mary 4565,Montreal,District,CA,H3W 1W5",
  "InstitutionName": "IUGM",
  "InstitutionalDepartmentName": "Department",
  "MRAcquisitionType": "2D",
  "MagneticFieldStrength": 3,
  "Manufacturer": "Siemens",
  "ManufacturersModelName": "Prisma_fit",
  "MatrixCoilMode": "SENSE",
  "Modality": "MR",
  "MultibandAccelerationFactor": 3,
  "PartialFourier": 0.75,
  "PatientPosition": "HFS",
  "PercentPhaseFOV": 100,
  "PercentSampling": 100,
  "PhaseEncodingDirection": "j",
  "PhaseEncodingSteps": 83,
  "PhaseResolution": 1,
  "PixelBandwidth": 1685,
  "ProcedureStepDescription": "anat^generic",
  "ProtocolName": "dMRI_dir106_PA_test_cmrr",
  "PulseSequenceDetails": "%CustomerSeq%\\cmrr_mbep2d_diff",
  "ReceiveCoilActiveElements": "HC1-6",
  "ReceiveCoilName": "HeadNeck_64",
  "ReconMatrixPE": 110,
  "RepetitionTime": 2.243,
  "SAR": 0.142309,
  "ScanOptions": "PFP\\EXT",
  "ScanningSequence": "EP",
  "SequenceName": "ep_b0",
  "SequenceVariant": "SK\\SS",
  "SeriesDescription": "dMRI_dir106_PA_test_cmrr",
  "SeriesNumber": 14,
  "ShimSetting": [604, -7270, -8812, 449, 9, -315, 43, 36],
  "SliceThickness": 2,
  "SliceTiming": [0, 1.17, 0.1175, 1.2875, 0.2325, 1.4025, 0.35, 1.52, 0.4675, 1.6375, 0.585, 1.755, 0.7025, 1.8725, 0.8175, 1.9875, 0.935, 2.105, 1.0525, 0, 1.17, 0.1175, 1.2875, 0.2325, 1.4025, 0.35, 1.52, 0.4675, 1.6375, 0.585, 1.755, 0.7025, 1.8725, 0.8175, 1.9875, 0.935, 2.105, 1.0525, 0, 1.17, 0.1175, 1.2875, 0.2325, 1.4025, 0.35, 1.52, 0.4675, 1.6375, 0.585, 1.755, 0.7025, 1.8725, 0.8175, 1.9875, 0.935, 2.105, 1.0525],
  "SoftwareVersions": "syngo MR E11",
  "SpacingBetweenSlices": 2,
  "StationName": "MRC35049",
  "TotalReadoutTime": 0.0763001,
  "TxRefAmp": 241.351,
  "WipMemBlock": "e48c1f0f-7a39-4deb-916d-32a455364dc3||Sequence: R017 ve11c/master r/75a17815+; Jun 28 2022 16:41:33 by eja",
  "dcmmeta_affine": [
    [-1.9999512434005737, 8.446895094493811e-08, 0.013962500728666782, 108.50081634521484],
    [-0.003731234697625041, 1.9272608757019043, -0.5344637632369995, -79.5338363647461],
    [0.013454713858664036, 0.5344767570495605, 1.9272140264511108, -43.14815139770508],
    [0.0, 0.0, 0.0, 1.0]
],
  "dcmmeta_reorient_transform": [
    [0.0, -1.0, 0.0, 109.0],
    [1.0, 0.0, 0.0, 0.0],
    [0.0, 0.0, 1.0, 0.0],
    [0.0, 0.0, 0.0, 1.0]
],
  "dcmmeta_shape": [110, 110, 57, 107],
  "dcmmeta_slice_dim": 2,
  "dcmmeta_version": 0.6,
  "global": {
    "const": {
      "AcquisitionMatrix": [110, 0, 0, 110],
      "AngioFlag": "N",
      "BitsAllocated": 16,
      "BitsStored": 16,
      "BodyPartExamined": "BRAIN",
      "CardiacNumberOfImages": 1,
      "Columns": 880,
      "EchoNumbers": 1,
      "EchoTime": 76.8,
      "EchoTrainLength": 83,
      "FlipAngle": 78.0,
      "HighBit": 15,
      "ImageOrientationPatient": [0.99997563077493, 0.00186561736333, 0.00672735669695, 4.2234477e-08, 0.96363045091952, -0.2672383843325],
      "ImagePositionPatient": [-878.48209592851, -873.96957651164, 215.70330711011],
      "ImageType": [
        "ORIGINAL",
        "PRIMARY",
        "DIFFUSION",
        "NONE",
        "MB",
        "ND",
        "MOSAIC"
],
      "ImagedNucleus": "1H",
      "ImagingFrequency": 123.258764,
      "InPlanePhaseEncodingDirection": "COL",
      "LargestImagePixelValue": 4095,
      "MRAcquisitionType": "2D",
      "MagneticFieldStrength": 3.0,
      "Manufacturer": "SIEMENS",
      "ManufacturerModelName": "Prisma_fit",
      "Modality": "MR",
      "NominalInterval": 0,
      "NumberOfAverages": 1.0,
      "NumberOfPhaseEncodingSteps": 83,
      "PercentPhaseFieldOfView": 100.0,
      "PercentSampling": 100.0,
      "PerformedProcedureStepStartTime": "160533.876000",
      "PhotometricInterpretation": "MONOCHROME2",
      "PixelBandwidth": 1685.0,
      "PixelRepresentation": 0,
      "PixelSpacing": [2.0, 2.0],
      "ProtocolName": "dMRI_dir106_PA_test_cmrr",
      "RepetitionTime": 2243.0,
      "RescaleIntercept": -4096.0,
      "RescaleSlope": 2.0,
      "RescaleType": "US",
      "Rows": 880,
      "SAR": 0.14230932669451,
      "SamplesPerPixel": 1,
      "ScanOptions": [
        "PFP",
        "EXT"
],
      "ScanningSequence": "EP",
      "SequenceVariant": [
        "SK",
        "SS"
],
      "SeriesDescription": "dMRI_dir106_PA_test_cmrr",
      "SeriesNumber": 14,
      "SeriesTime": "163715.964000",
      "SliceLocation": -19.566413036461,
      "SliceThickness": 2.0,
      "SmallestImagePixelValue": 0,
      "SoftwareVersions": "syngo MR E11",
      "SpacingBetweenSlices": 2.00000005056,
      "SpecificCharacterSet": "ISO_IR 100",
      "StudyID": "1",
      "StudyTime": "160533.742000",
      "TransmitCoilName": "Body",
      "VariableFlipAngleFlag": "N",
      "WindowCenterWidthExplanation": "Algo1",
      "dBdt": 0.0},
    "slices": {}
  },
  "time": {
    "samples": {
      "AcquisitionNumber": [1, 2, 3, 4, 5, 6, 7, 8, 9, 10, 11, 12, 13, 14, 15, 16, 17, 18, 19, 20, 21, 22, 23, 24, 25, 26, 27, 28, 29, 30, 31, 32, 33, 34, 35, 36, 37, 38, 39, 40, 41, 42, 43, 44, 45, 46, 47, 48, 49, 50, 51, 52, 53, 54, 55, 56, 57, 58, 59, 60, 61, 62, 63, 64, 65, 66, 67, 68, 69, 70, 71, 72, 73, 74, 75, 76, 77, 78, 79, 80, 81, 82, 83, 84, 85, 86, 87, 88, 89, 90, 91, 92, 93, 94, 95, 96, 97, 98, 99, 100, 101, 102, 103, 104, 105, 106, 107],
      "AcquisitionTime": ["163613.907500", "163616.150000", "163618.392500", "163620.637500", "163622.880000", "163625.122500", "163627.365000", "163629.607500", "163631.852500", "163634.095000", "163636.337500", "163638.580000", "163640.822500", "163643.067500", "163645.310000", "163647.552500", "163649.795000", "163652.037500", "163654.282500", "163656.525000", "163658.767500", "163701.010000", "163703.252500", "163705.497500", "163707.740000", "163709.982500", "163712.225000", "163714.467500", "163716.712500", "163718.955000", "163721.197500", "163723.440000", "163725.682500", "163727.927500", "163730.170000", "163732.412500", "163734.655000", "163736.897500", "163739.142500", "163741.385000", "163743.627500", "163745.870000", "163748.112500", "163750.357500", "163752.600000", "163754.842500", "163757.085000", "163759.327500", "163801.572500", "163803.815000", "163806.057500", "163808.300000", "163810.542500", "163812.787500", "163815.030000", "163817.272500", "163819.515000", "163821.757500", "163824.002500", "163826.245000", "163828.487500", "163830.730000", "163832.972500", "163835.217500", "163837.460000", "163839.702500", "163841.945000", "163844.187500", "163846.432500", "163848.675000", "163850.917500", "163853.160000", "163855.402500", "163857.647500", "163859.890000", "163902.132500", "163904.375000", "163906.617500", "163908.862500", "163911.105000", "163913.347500", "163915.590000", "163917.832500", "163920.077500", "163922.320000", "163924.562500", "163926.805000", "163929.047500", "163931.292500", "163933.535000", "163935.777500", "163938.020000", "163940.262500", "163942.507500", "163944.750000", "163946.992500", "163949.235000", "163951.477500", "163953.722500", "163955.965000", "163958.207500", "164000.450000", "164002.692500", "164004.937500", "164007.180000", "164009.422500", "164011.665000"],
      "ContentTime": ["163715.966000", "163715.970000", "163715.973000", "163715.976000", "163715.979000", "163715.982000", "163715.985000", "163715.989000", "163715.992000", "163715.995000", "163715.998000", "163716.002000", "163716.005000", "163716.008000", "163716.011000", "163716.015000", "163716.018000", "163716.021000", "163716.024000", "163716.027000", "163716.030000", "163716.033000", "163716.036000", "163716.039000", "163716.043000", "163716.046000", "163716.049000", "163815.940000", "163815.943000", "163815.947000", "163815.950000", "163815.953000", "163815.956000", "163815.959000", "163815.962000", "163815.965000", "163815.968000", "163815.972000", "163815.975000", "163815.978000", "163815.981000", "163815.984000", "163815.987000", "163815.990000", "163815.993000", "163815.996000", "163816.000000", "163816.003000", "163816.007000", "163816.010000", "163816.013000", "163816.016000", "163816.019000", "163915.940000", "163915.944000", "163915.947000", "163915.950000", "163915.953000", "163915.956000", "163915.960000", "163915.963000", "163915.966000", "163915.969000", "163915.972000", "163915.975000", "163915.978000", "163915.981000", "163915.984000", "163915.988000", "163915.991000", "163915.994000", "163915.997000", "163916.001000", "163916.004000", "163916.007000", "163916.010000", "163916.014000", "163916.017000", "163916.020000", "163916.023000", "163935.970000", "163935.973000", "163935.976000", "163935.979000", "163935.982000", "163935.985000", "163935.989000", "163935.992000", "163935.995000", "164017.020000", "164017.024000", "164017.028000", "164017.031000", "164017.035000", "164017.038000", "164017.041000", "164017.045000", "164017.048000", "164017.052000", "164017.055000", "164017.058000", "164017.061000", "164017.065000", "164017.068000", "164017.071000", "164017.074000", "164017.078000"],
      "InstanceCreationTime": ["163715.966000", "163715.970000", "163715.973000", "163715.976000", "163715.979000", "163715.982000", "163715.985000", "163715.989000", "163715.992000", "163715.995000", "163715.998000", "163716.002000", "163716.005000", "163716.008000", "163716.011000", "163716.015000", "163716.018000", "163716.021000", "163716.024000", "163716.027000", "163716.030000", "163716.033000", "163716.036000", "163716.039000", "163716.043000", "163716.046000", "163716.049000", "163815.940000", "163815.943000", "163815.947000", "163815.950000", "163815.953000", "163815.956000", "163815.959000", "163815.962000", "163815.965000", "163815.968000", "163815.972000", "163815.975000", "163815.978000", "163815.981000", "163815.984000", "163815.987000", "163815.990000", "163815.993000", "163815.996000", "163816.000000", "163816.003000", "163816.007000", "163816.010000", "163816.013000", "163816.016000", "163816.019000", "163915.940000", "163915.944000", "163915.947000", "163915.950000", "163915.953000", "163915.956000", "163915.960000", "163915.963000", "163915.966000", "163915.969000", "163915.972000", "163915.975000", "163915.978000", "163915.981000", "163915.984000", "163915.988000", "163915.991000", "163915.994000", "163915.997000", "163916.001000", "163916.004000", "163916.007000", "163916.010000", "163916.014000", "163916.017000", "163916.020000", "163916.023000", "163935.970000", "163935.973000", "163935.976000", "163935.979000", "163935.982000", "163935.985000", "163935.989000", "163935.992000", "163935.995000", "164017.020000", "164017.024000", "164017.028000", "164017.031000", "164017.035000", "164017.038000", "164017.041000", "164017.045000", "164017.048000", "164017.052000", "164017.055000", "164017.058000", "164017.061000", "164017.065000", "164017.068000", "164017.071000", "164017.074000", "164017.078000"],
      "InstanceNumber": [1, 2, 3, 4, 5, 6, 7, 8, 9, 10, 11, 12, 13, 14, 15, 16, 17, 18, 19, 20, 21, 22, 23, 24, 25, 26, 27, 28, 29, 30, 31, 32, 33, 34, 35, 36, 37, 38, 39, 40, 41, 42, 43, 44, 45, 46, 47, 48, 49, 50, 51, 52, 53, 54, 55, 56, 57, 58, 59, 60, 61, 62, 63, 64, 65, 66, 67, 68, 69, 70, 71, 72, 73, 74, 75, 76, 77, 78, 79, 80, 81, 82, 83, 84, 85, 86, 87, 88, 89, 90, 91, 92, 93, 94, 95, 96, 97, 98, 99, 100, 101, 102, 103, 104, 105, 106, 107],
      "SequenceName": [
 "ep_b0",
 "ep_b0",
 "ep_b1000#2",
 "ep_b2000#3",
 "ep_b1000#4",
 "ep_b1000#5",
 "ep_b300#6",
 "ep_b2000#7",
 "ep_b2000#8",
 "ep_b2000#9",
 "ep_b1000#10",
 "ep_b300#11",
 "ep_b2000#12",
 "ep_b2000#13",
 "ep_b2000#14",
 "ep_b2000#15",
 "ep_b1000#16",
 "ep_b2000#17",
 "ep_b2000#18",
 "ep_b2000#19",
 "ep_b2000#20",
 "ep_b0",
 "ep_b1000#22",
 "ep_b2000#23",
 "ep_b1000#24",
 "ep_b1000#25",
 "ep_b2000#26",
 "ep_b2000#27",
 "ep_b2000#28",
 "ep_b2000#29",
 "ep_b300#30",
 "ep_b2000#31",
 "ep_b1000#32",
 "ep_b2000#33",
 "ep_b2000#34",
 "ep_b300#35",
 "ep_b2000#36",
 "ep_b2000#37",
 "ep_b1000#38",
 "ep_b2000#39",
 "ep_b2000#40",
 "ep_b0",
 "ep_b2000#42",
 "ep_b2000#43",
 "ep_b2000#44",
 "ep_b300#45",
 "ep_b1000#46",
 "ep_b2000#47",
 "ep_b2000#48",
 "ep_b1000#49",
 "ep_b2000#50",
 "ep_b1000#51",
 "ep_b1000#52",
 "ep_b2000#53",
 "ep_b300#54",
 "ep_b1000#55",
 "ep_b2000#56",
 "ep_b1000#57",
 "ep_b2000#58",
 "ep_b2000#59",
 "ep_b1000#60",
 "ep_b0",
 "ep_b1000#62",
 "ep_b2000#63",
 "ep_b2000#64",
 "ep_b2000#65",
 "ep_b2000#66",
 "ep_b300#67",
 "ep_b1000#68",
 "ep_b1000#69",
 "ep_b2000#70",
 "ep_b2000#71",
 "ep_b2000#72",
 "ep_b2000#73",
 "ep_b1000#74",
 "ep_b2000#75",
 "ep_b2000#76",
 "ep_b2000#77",
 "ep_b1000#78",
 "ep_b1000#79",
 "ep_b2000#80",
 "ep_b0",
 "ep_b1000#82",
 "ep_b2000#83",
 "ep_b2000#84",
 "ep_b1000#85",
 "ep_b1000#86",
 "ep_b2000#87",
 "ep_b1000#88",
 "ep_b2000#89",
 "ep_b2000#90",
 "ep_b2000#91",
 "ep_b1000#92",
 "ep_b2000#93",
 "ep_b2000#94",
 "ep_b2000#95",
 "ep_b300#96",
 "ep_b1000#97",
 "ep_b2000#98",
 "ep_b1000#99",
 "ep_b1000#100",
 "ep_b0",
 "ep_b2000#102",
 "ep_b2000#103",
 "ep_b1000#104",
 "ep_b2000#105",
 "ep_b2000#106"
],
      "TriggerTime": [12837.5, 15080.0, 17322.5, 19565.0, 21810.0, 24052.5, 26295.0, 28537.5, 30780.0, 33025.0, 35267.5, 37510.0, 39752.5, 41995.0, 44240.0, 46482.5, 48725.0, 50967.5, 53210.0, 55455.0, 57697.5, 59940.0, 62182.5, 64425.0, 66670.0, 68912.5, 71155.0, 73397.5, 75640.0, 77885.0, 80127.5, 82370.0, 84612.5, 86855.0, 89100.0, 91342.5, 93585.0, 95827.5, 98070.0, 100315.0, 102557.5, 104800.0, 107042.5, 109285.0, 111530.0, 113772.5, 116015.0, 118257.5, 120500.0, 122745.0, 124987.5, 127230.0, 129472.5, 131715.0, 133960.0, 136202.5, 138445.0, 140687.5, 142930.0, 145175.0, 147417.5, 149660.0, 151902.5, 154145.0, 156390.0, 158632.5, 160875.0, 163117.5, 165360.0, 167605.0, 169847.5, 172090.0, 174332.5, 176575.0, 178820.0, 181062.5, 183305.0, 185547.5, 187790.0, 190035.0, 192277.5, 194520.0, 196762.5, 199005.0, 201250.0, 203492.5, 205735.0, 207977.5, 210220.0, 212465.0, 214707.5, 216950.0, 219192.5, 221435.0, 223680.0, 225922.5, 228165.0, 230407.5, 232650.0, 234895.0, 237137.5, 239380.0, 241622.5, 243865.0, 246110.0, 248352.5, 250595.0],
      "WindowCenter": [4656.0, 4654.0, 4468.0, 4590.0, 4554.0, 4878.0, 4600.0, 4478.0, 4738.0, 4644.0, 4646.0, 4596.0, 4866.0, 5162.0, 4786.0, 4504.0, 4822.0, 4692.0, 4370.0, 4836.0, 4598.0, 4692.0, 4958.0, 4378.0, 4716.0, 4700.0, 4804.0, 4746.0, 5072.0, 4630.0, 4736.0, 4696.0, 4930.0, 4772.0, 4734.0, 4616.0, 4838.0, 4562.0, 4988.0, 4700.0, 4956.0, 4584.0, 4626.0, 4726.0, 5070.0, 4792.0, 4568.0, 4930.0, 4648.0, 4688.0, 4898.0, 4932.0, 4378.0, 4586.0, 4704.0, 4826.0, 4820.0, 4258.0, 4978.0, 4704.0, 4866.0, 4812.0, 4478.0, 5100.0, 4250.0, 4970.0, 4790.0, 4512.0, 4598.0, 5004.0, 4796.0, 4348.0, 4550.0, 4510.0, 4906.0, 4268.0, 4614.0, 4734.0, 4726.0, 4780.0, 4530.0, 4722.0, 4868.0, 4800.0, 4970.0, 4520.0, 4622.0, 5004.0, 5078.0, 4486.0, 4352.0, 4958.0, 4478.0, 4966.0, 4490.0, 4828.0, 4584.0, 4276.0, 4726.0, 4746.0, 4562.0, 4718.0, 4838.0, 4920.0, 4718.0, 4670.0, 4372.0],
      "WindowWidth": [18262.0, 18268.0, 18200.0, 18516.0, 18322.0, 18682.0, 18260.0, 18340.0, 18712.0, 18524.0, 18444.0, 18324.0, 18732.0, 19104.0, 18706.0, 18348.0, 18690.0, 18586.0, 18234.0, 18822.0, 18440.0, 18300.0, 18852.0, 18180.0, 18544.0, 18540.0, 18784.0, 18584.0, 19022.0, 18486.0, 18408.0, 18656.0, 18762.0, 18700.0, 18572.0, 18310.0, 18880.0, 18440.0, 18708.0, 18578.0, 18828.0, 18208.0, 18490.0, 18664.0, 19104.0, 18532.0, 18352.0, 18866.0, 18462.0, 18530.0, 18898.0, 18840.0, 18074.0, 18468.0, 18422.0, 18586.0, 18786.0, 18000.0, 19088.0, 18598.0, 18636.0, 18430.0, 18192.0, 19096.0, 18026.0, 19000.0, 18708.0, 18184.0, 18412.0, 18890.0, 18594.0, 18196.0, 18466.0, 18428.0, 18808.0, 18018.0, 18692.0, 18662.0, 18626.0, 18672.0, 18428.0, 18332.0, 18678.0, 18802.0, 18936.0, 18322.0, 18456.0, 19036.0, 18912.0, 18344.0, 18188.0, 18844.0, 18246.0, 19088.0, 18256.0, 18796.0, 18284.0, 18000.0, 18704.0, 18594.0, 18378.0, 18330.0, 18798.0, 19082.0, 18508.0, 18616.0, 18200.0]
    },
    "slices": {}
  }
}