{
  "AcquisitionMatrixPE": 110,
  "AcquisitionNumber": 1,
  "AcquisitionTime": "16:31:56.197500",
  "BandwidthPerPixelPhaseEncode": 12.987,
  "BaseResolution": 110,
  "BodyPartExamined": "BRAIN",
  "CoilCombinationMethod": "Sum of Squares",
  "ConsistencyInfo": "N4_VE11C_LATEST_20160120",
  "ConversionSoftware": "dcm2niix",
  "ConversionSoftwareVersion": "v1.0.20211006",
  "DerivedVendorReportedEchoSpacing": 0.000700001,
  "DeviceSerialNumber": "167006",
  "DiffusionScheme": "Monopolar",
  "DwellTime": 2.7e-06,
  "EchoTime": 0.0768,
  "EchoTrainLength": 83,
  "EffectiveEchoSpacing": 0.000700001,
  "FlipAngle": 78,
  "HeudiconvVersion": "0.5.3.post569+g418601f",
  "ImageComments": "Unaliased MB3/PE3/LB SENSE1+",
  "ImageOrientationPatientDICOM": [0.999976, 0.00186562, 0.00672736, 4.22345e-08, 0.96363, -0.267238],
  "ImageOrientationText": "Tra>Cor(-15.5)>Sag(0.4)",
  "ImageType": [
    "ORIGINAL",
    "PRIMARY",
    "DIFFUSION",
    "NONE",
    "MB",
    "ND",
    "MOSAIC"
],
  "ImagingFrequency": 123.259,
  "InPlanePhaseEncodingDirectionDICOM": "COL",
  "InstitutionAddress": "Chemin Queen-Mary 4565,Montreal,District,CA,H3W 1W5",
  "InstitutionName": "IUGM",
  "InstitutionalDepartmentName": "Department",
  "MRAcquisitionType": "2D",
  "MagneticFieldStrength": 3,
  "Manufacturer": "Siemens",
  "ManufacturersModelName": "Prisma_fit",
  "MatrixCoilMode": "SENSE",
  "Modality": "MR",
  "MultibandAccelerationFactor": 3,
  "PartialFourier": 0.75,
  "PatientPosition": "HFS",
  "PercentPhaseFOV": 100,
  "PercentSampling": 100,
  "PhaseEncodingDirection": "j-",
  "PhaseEncodingSteps": 83,
  "PhaseResolution": 1,
  "PixelBandwidth": 1685,
  "ProcedureStepDescription": "anat^generic",
  "ProtocolName": "dMRI_dir106_AP_test_cmrr",
  "PulseSequenceDetails": "%CustomerSeq%\\cmrr_mbep2d_diff",
  "ReceiveCoilActiveElements": "HC1-6",
  "ReceiveCoilName": "HeadNeck_64",
  "ReconMatrixPE": 110,
  "RepetitionTime": 2.243,
  "SAR": 0.142309,
  "ScanOptions": "PFP\\EXT",
  "ScanningSequence": "EP",
  "SequenceName": "ep_b0",
  "SequenceVariant": "SK\\SS",
  "SeriesDescription": "dMRI_dir106_AP_test_cmrr",
  "SeriesNumber": 9,
  "ShimSetting": [604, -7270, -8812, 449, 9, -315, 43, 36],
  "SliceThickness": 2,
  "SliceTiming": [0, 1.17, 0.1175, 1.2875, 0.235, 1.4025, 0.35, 1.52, 0.4675, 1.6375, 0.585, 1.755, 0.7025, 1.8725, 0.82, 1.9875, 0.935, 2.105, 1.0525, 0, 1.17, 0.1175, 1.2875, 0.235, 1.4025, 0.35, 1.52, 0.4675, 1.6375, 0.585, 1.755, 0.7025, 1.8725, 0.82, 1.9875, 0.935, 2.105, 1.0525, 0, 1.17, 0.1175, 1.2875, 0.235, 1.4025, 0.35, 1.52, 0.4675, 1.6375, 0.585, 1.755, 0.7025, 1.8725, 0.82, 1.9875, 0.935, 2.105, 1.0525],
  "SoftwareVersions": "syngo MR E11",
  "SpacingBetweenSlices": 2,
  "StationName": "MRC35049",
  "TotalReadoutTime": 0.0763001,
  "TxRefAmp": 241.351,
  "WipMemBlock": "92a4bc2d-d96c-4d7d-ba16-f1256130dfbe||Sequence: R017 ve11c/master r/75a17815+; Jun 28 2022 16:41:33 by eja",
  "dcmmeta_affine": [
    [-1.9999512434005737, 8.446895805036547e-08, 0.013962500728666782, 108.50081634521484],
    [-0.003731234697625041, 1.9272608757019043, -0.5344637632369995, -79.5338363647461],
    [0.013454713858664036, 0.5344767570495605, 1.9272140264511108, -43.14815139770508],
    [0.0, 0.0, 0.0, 1.0]
],
  "dcmmeta_reorient_transform": [
    [0.0, -1.0, 0.0, 109.0],
    [1.0, 0.0, 0.0, 0.0],
    [0.0, 0.0, 1.0, 0.0],
    [0.0, 0.0, 0.0, 1.0]
],
  "dcmmeta_shape": [110, 110, 57, 107],
  "dcmmeta_slice_dim": 2,
  "dcmmeta_version": 0.6,
  "global": {
    "const": {
      "AcquisitionMatrix": [110, 0, 0, 110],
      "AngioFlag": "N",
      "BitsAllocated": 16,
      "BitsStored": 16,
      "BodyPartExamined": "BRAIN",
      "CardiacNumberOfImages": 1,
      "Columns": 880,
      "EchoNumbers": 1,
      "EchoTime": 76.8,
      "EchoTrainLength": 83,
      "FlipAngle": 78.0,
      "HighBit": 15,
      "ImageOrientationPatient": [0.99997563077493, 0.00186561736333, 0.00672735669695, 4.2234478e-08, 0.96363045091952, -0.2672383843325],
      "ImagePositionPatient": [-878.48209592851, -873.96957651164, 215.70330711011],
      "ImageType": [
        "ORIGINAL",
        "PRIMARY",
        "DIFFUSION",
        "NONE",
        "MB",
        "ND",
        "MOSAIC"
],
      "ImagedNucleus": "1H",
      "ImagingFrequency": 123.258758,
      "InPlanePhaseEncodingDirection": "COL",
      "LargestImagePixelValue": 4095,
      "MRAcquisitionType": "2D",
      "MagneticFieldStrength": 3.0,
      "Manufacturer": "SIEMENS",
      "ManufacturerModelName": "Prisma_fit",
      "Modality": "MR",
      "NominalInterval": 0,
      "NumberOfAverages": 1.0,
      "NumberOfPhaseEncodingSteps": 83,
      "PercentPhaseFieldOfView": 100.0,
      "PercentSampling": 100.0,
      "PerformedProcedureStepStartTime": "160533.876000",
      "PhotometricInterpretation": "MONOCHROME2",
      "PixelBandwidth": 1685.0,
      "PixelRepresentation": 0,
      "PixelSpacing": [2.0, 2.0],
      "ProtocolName": "dMRI_dir106_AP_test_cmrr",
      "RepetitionTime": 2243.0,
      "RescaleIntercept": -4096.0,
      "RescaleSlope": 2.0,
      "RescaleType": "US",
      "Rows": 880,
      "SAR": 0.14230932669451,
      "SamplesPerPixel": 1,
      "ScanOptions": [
        "PFP",
        "EXT"
],
      "ScanningSequence": "EP",
      "SequenceVariant": [
        "SK",
        "SS"
],
      "SeriesDescription": "dMRI_dir106_AP_test_cmrr",
      "SeriesNumber": 9,
      "SeriesTime": "163244.438000",
      "SliceLocation": -19.566413036461,
      "SliceThickness": 2.0,
      "SmallestImagePixelValue": 0,
      "SoftwareVersions": "syngo MR E11",
      "SpacingBetweenSlices": 2.00000005056,
      "SpecificCharacterSet": "ISO_IR 100",
      "StudyID": "1",
      "StudyTime": "160533.742000",
      "TransmitCoilName": "Body",
      "VariableFlipAngleFlag": "N",
      "WindowCenterWidthExplanation": "Algo1",
      "dBdt": 0.0},
    "slices": {}
  },
  "time": {
    "samples": {
      "AcquisitionNumber": [1, 2, 3, 4, 5, 6, 7, 8, 9, 10, 11, 12, 13, 14, 15, 16, 17, 18, 19, 20, 21, 22, 23, 24, 25, 26, 27, 28, 29, 30, 31, 32, 33, 34, 35, 36, 37, 38, 39, 40, 41, 42, 43, 44, 45, 46, 47, 48, 49, 50, 51, 52, 53, 54, 55, 56, 57, 58, 59, 60, 61, 62, 63, 64, 65, 66, 67, 68, 69, 70, 71, 72, 73, 74, 75, 76, 77, 78, 79, 80, 81, 82, 83, 84, 85, 86, 87, 88, 89, 90, 91, 92, 93, 94, 95, 96, 97, 98, 99, 100, 101, 102, 103, 104, 105, 106, 107],
      "AcquisitionTime": ["163156.197500", "163158.440000", "163200.682500", "163202.927500", "163205.170000", "163207.412500", "163209.655000", "163211.897500", "163214.142500", "163216.385000", "163218.627500", "163220.870000", "163223.112500", "163225.357500", "163227.600000", "163229.842500", "163232.085000", "163234.327500", "163236.572500", "163238.815000", "163241.057500", "163243.300000", "163245.542500", "163247.787500", "163250.030000", "163252.272500", "163254.515000", "163256.757500", "163259.002500", "163301.245000", "163303.487500", "163305.730000", "163307.972500", "163310.217500", "163312.460000", "163314.702500", "163316.945000", "163319.187500", "163321.432500", "163323.675000", "163325.917500", "163328.160000", "163330.402500", "163332.647500", "163334.890000", "163337.132500", "163339.375000", "163341.617500", "163343.862500", "163346.105000", "163348.347500", "163350.590000", "163352.832500", "163355.077500", "163357.320000", "163359.562500", "163401.805000", "163404.047500", "163406.292500", "163408.535000", "163410.777500", "163413.020000", "163415.262500", "163417.507500", "163419.750000", "163421.992500", "163424.235000", "163426.477500", "163428.722500", "163430.965000", "163433.207500", "163435.450000", "163437.692500", "163439.937500", "163442.180000", "163444.422500", "163446.665000", "163448.907500", "163451.152500", "163453.395000", "163455.637500", "163457.880000", "163500.122500", "163502.367500", "163504.610000", "163506.852500", "163509.095000", "163511.337500", "163513.582500", "163515.825000", "163518.067500", "163520.310000", "163522.552500", "163524.797500", "163527.040000", "163529.282500", "163531.525000", "163533.767500", "163536.012500", "163538.255000", "163540.497500", "163542.740000", "163544.982500", "163547.227500", "163549.470000", "163551.712500", "163553.955000"],
      "ContentTime": ["163244.441000", "163244.444000", "163244.447000", "163244.450000", "163244.453000", "163244.456000", "163244.460000", "163244.463000", "163244.466000", "163244.469000", "163244.472000", "163244.475000", "163244.478000", "163244.481000", "163244.492000", "163244.495000", "163244.498000", "163244.501000", "163244.505000", "163244.508000", "163244.511000", "163344.413000", "163344.417000", "163344.420000", "163344.423000", "163344.426000", "163344.429000", "163344.432000", "163344.436000", "163344.439000", "163344.442000", "163344.445000", "163344.448000", "163344.451000", "163344.454000", "163344.458000", "163344.461000", "163344.464000", "163344.467000", "163344.470000", "163344.473000", "163344.476000", "163344.479000", "163344.482000", "163344.485000", "163344.489000", "163344.492000", "163444.411000", "163444.415000", "163444.418000", "163444.421000", "163444.424000", "163444.427000", "163444.430000", "163444.434000", "163444.437000", "163444.440000", "163444.443000", "163444.446000", "163444.449000", "163444.453000", "163444.456000", "163444.459000", "163444.462000", "163444.465000", "163444.468000", "163444.471000", "163444.474000", "163444.477000", "163444.481000", "163444.484000", "163444.487000", "163444.490000", "163444.493000", "163544.420000", "163544.424000", "163544.427000", "163544.430000", "163544.433000", "163544.436000", "163544.439000", "163544.442000", "163544.446000", "163544.449000", "163544.452000", "163544.455000", "163544.458000", "163544.461000", "163544.465000", "163544.468000", "163544.471000", "163544.474000", "163544.477000", "163544.480000", "163544.483000", "163544.486000", "163544.489000", "163544.493000", "163544.496000", "163544.499000", "163544.502000", "163559.229000", "163559.232000", "163559.235000", "163559.238000", "163559.241000", "163559.244000"],
      "InstanceCreationTime": ["163244.441000", "163244.444000", "163244.447000", "163244.450000", "163244.453000", "163244.456000", "163244.460000", "163244.463000", "163244.466000", "163244.469000", "163244.472000", "163244.475000", "163244.478000", "163244.481000", "163244.492000", "163244.495000", "163244.498000", "163244.501000", "163244.505000", "163244.508000", "163244.511000", "163344.413000", "163344.417000", "163344.420000", "163344.423000", "163344.426000", "163344.429000", "163344.432000", "163344.436000", "163344.439000", "163344.442000", "163344.445000", "163344.448000", "163344.451000", "163344.454000", "163344.458000", "163344.461000", "163344.464000", "163344.467000", "163344.470000", "163344.473000", "163344.476000", "163344.479000", "163344.482000", "163344.485000", "163344.489000", "163344.492000", "163444.411000", "163444.415000", "163444.418000", "163444.421000", "163444.424000", "163444.427000", "163444.430000", "163444.434000", "163444.437000", "163444.440000", "163444.443000", "163444.446000", "163444.449000", "163444.453000", "163444.456000", "163444.459000", "163444.462000", "163444.465000", "163444.468000", "163444.471000", "163444.474000", "163444.477000", "163444.481000", "163444.484000", "163444.487000", "163444.490000", "163444.493000", "163544.420000", "163544.424000", "163544.427000", "163544.430000", "163544.433000", "163544.436000", "163544.439000", "163544.442000", "163544.446000", "163544.449000", "163544.452000", "163544.455000", "163544.458000", "163544.461000", "163544.465000", "163544.468000", "163544.471000", "163544.474000", "163544.477000", "163544.480000", "163544.483000", "163544.486000", "163544.489000", "163544.493000", "163544.496000", "163544.499000", "163544.502000", "163559.229000", "163559.232000", "163559.235000", "163559.238000", "163559.241000", "163559.244000"],
      "InstanceNumber": [1, 2, 3, 4, 5, 6, 7, 8, 9, 10, 11, 12, 13, 14, 15, 16, 17, 18, 19, 20, 21, 22, 23, 24, 25, 26, 27, 28, 29, 30, 31, 32, 33, 34, 35, 36, 37, 38, 39, 40, 41, 42, 43, 44, 45, 46, 47, 48, 49, 50, 51, 52, 53, 54, 55, 56, 57, 58, 59, 60, 61, 62, 63, 64, 65, 66, 67, 68, 69, 70, 71, 72, 73, 74, 75, 76, 77, 78, 79, 80, 81, 82, 83, 84, 85, 86, 87, 88, 89, 90, 91, 92, 93, 94, 95, 96, 97, 98, 99, 100, 101, 102, 103, 104, 105, 106, 107],
      "SequenceName": [
 "ep_b0",
 "ep_b0",
 "ep_b1000#2",
 "ep_b2000#3",
 "ep_b1000#4",
 "ep_b1000#5",
 "ep_b300#6",
 "ep_b2000#7",
 "ep_b2000#8",
 "ep_b2000#9",
 "ep_b1000#10",
 "ep_b300#11",
 "ep_b2000#12",
 "ep_b2000#13",
 "ep_b2000#14",
 "ep_b2000#15",
 "ep_b1000#16",
 "ep_b2000#17",
 "ep_b2000#18",
 "ep_b2000#19",
 "ep_b2000#20",
 "ep_b0",
 "ep_b1000#22",
 "ep_b2000#23",
 "ep_b1000#24",
 "ep_b1000#25",
 "ep_b2000#26",
 "ep_b2000#27",
 "ep_b2000#28",
 "ep_b2000#29",
 "ep_b300#30",
 "ep_b2000#31",
 "ep_b1000#32",
 "ep_b2000#33",
 "ep_b2000#34",
 "ep_b300#35",
 "ep_b2000#36",
 "ep_b2000#37",
 "ep_b1000#38",
 "ep_b2000#39",
 "ep_b2000#40",
 "ep_b0",
 "ep_b2000#42",
 "ep_b2000#43",
 "ep_b2000#44",
 "ep_b300#45",
 "ep_b1000#46",
 "ep_b2000#47",
 "ep_b2000#48",
 "ep_b1000#49",
 "ep_b2000#50",
 "ep_b1000#51",
 "ep_b1000#52",
 "ep_b2000#53",
 "ep_b300#54",
 "ep_b1000#55",
 "ep_b2000#56",
 "ep_b1000#57",
 "ep_b2000#58",
 "ep_b2000#59",
 "ep_b1000#60",
 "ep_b0",
 "ep_b1000#62",
 "ep_b2000#63",
 "ep_b2000#64",
 "ep_b2000#65",
 "ep_b2000#66",
 "ep_b300#67",
 "ep_b1000#68",
 "ep_b1000#69",
 "ep_b2000#70",
 "ep_b2000#71",
 "ep_b2000#72",
 "ep_b2000#73",
 "ep_b1000#74",
 "ep_b2000#75",
 "ep_b2000#76",
 "ep_b2000#77",
 "ep_b1000#78",
 "ep_b1000#79",
 "ep_b2000#80",
 "ep_b0",
 "ep_b1000#82",
 "ep_b2000#83",
 "ep_b2000#84",
 "ep_b1000#85",
 "ep_b1000#86",
 "ep_b2000#87",
 "ep_b1000#88",
 "ep_b2000#89",
 "ep_b2000#90",
 "ep_b2000#91",
 "ep_b1000#92",
 "ep_b2000#93",
 "ep_b2000#94",
 "ep_b2000#95",
 "ep_b300#96",
 "ep_b1000#97",
 "ep_b2000#98",
 "ep_b1000#99",
 "ep_b1000#100",
 "ep_b0",
 "ep_b2000#102",
 "ep_b2000#103",
 "ep_b1000#104",
 "ep_b2000#105",
 "ep_b2000#106"
],
      "TriggerTime": [12837.5, 15080.0, 17322.5, 19565.0, 21810.0, 24052.5, 26295.0, 28537.5, 30780.0, 33025.0, 35267.5, 37510.0, 39752.5, 41995.0, 44240.0, 46482.5, 48725.0, 50967.5, 53210.0, 55455.0, 57697.5, 59940.0, 62182.5, 64425.0, 66670.0, 68912.5, 71155.0, 73397.5, 75640.0, 77885.0, 80127.5, 82370.0, 84612.5, 86855.0, 89100.0, 91342.5, 93585.0, 95827.5, 98070.0, 100315.0, 102557.5, 104800.0, 107042.5, 109285.0, 111530.0, 113772.5, 116015.0, 118257.5, 120500.0, 122745.0, 124987.5, 127230.0, 129472.5, 131715.0, 133960.0, 136202.5, 138445.0, 140687.5, 142930.0, 145175.0, 147417.5, 149660.0, 151902.5, 154145.0, 156390.0, 158632.5, 160875.0, 163117.5, 165360.0, 167605.0, 169847.5, 172090.0, 174332.5, 176575.0, 178820.0, 181062.5, 183305.0, 185547.5, 187790.0, 190035.0, 192277.5, 194520.0, 196762.5, 199005.0, 201250.0, 203492.5, 205735.0, 207977.5, 210220.0, 212465.0, 214707.5, 216950.0, 219192.5, 221435.0, 223680.0, 225922.5, 228165.0, 230407.5, 232650.0, 234895.0, 237137.5, 239380.0, 241622.5, 243865.0, 246110.0, 248352.5, 250595.0],
      "WindowCenter": [4660.0, 4662.0, 4478.0, 4528.0, 4564.0, 4826.0, 4640.0, 4334.0, 4854.0, 4686.0, 4874.0, 4590.0, 4726.0, 5126.0, 4894.0, 4614.0, 4956.0, 4852.0, 4290.0, 4904.0, 4440.0, 4632.0, 5100.0, 4358.0, 4640.0, 4830.0, 4824.0, 4736.0, 4994.0, 4578.0, 4786.0, 4844.0, 4774.0, 4802.0, 4828.0, 4538.0, 5012.0, 4538.0, 5146.0, 4624.0, 5146.0, 4602.0, 4424.0, 4752.0, 4990.0, 4704.0, 4420.0, 5110.0, 4626.0, 4682.0, 4934.0, 5096.0, 4470.0, 4768.0, 4770.0, 4962.0, 4966.0, 4264.0, 5104.0, 4614.0, 4896.0, 4788.0, 4580.0, 4968.0, 4228.0, 4926.0, 4744.0, 4558.0, 4592.0, 5104.0, 4850.0, 4304.0, 4540.0, 4414.0, 4918.0, 4360.0, 4410.0, 4812.0, 4782.0, 4838.0, 4522.0, 4638.0, 4976.0, 5092.0, 5000.0, 4396.0, 4798.0, 4936.0, 5066.0, 4492.0, 4292.0, 5040.0, 4480.0, 5002.0, 4480.0, 4920.0, 4556.0, 4174.0, 4778.0, 4928.0, 4652.0, 4694.0, 4992.0, 4920.0, 4656.0, 4780.0, 4344.0],
      "WindowWidth": [18224.0, 18230.0, 18138.0, 18378.0, 18292.0, 18490.0, 18282.0, 18124.0, 18836.0, 18532.0, 18890.0, 18266.0, 18648.0, 19128.0, 18816.0, 18458.0, 18846.0, 18796.0, 18044.0, 18940.0, 18184.0, 18198.0, 19002.0, 18134.0, 18408.0, 18610.0, 18834.0, 18508.0, 19044.0, 18390.0, 18410.0, 18800.0, 18486.0, 18708.0, 18716.0, 18170.0, 19050.0, 18362.0, 18898.0, 18440.0, 18982.0, 18176.0, 18194.0, 18626.0, 19034.0, 18368.0, 18088.0, 19032.0, 18350.0, 18450.0, 18998.0, 18982.0, 18162.0, 18618.0, 18450.0, 18782.0, 19006.0, 17966.0, 19164.0, 18376.0, 18558.0, 18346.0, 18308.0, 18996.0, 17954.0, 18992.0, 18618.0, 18222.0, 18324.0, 19008.0, 18626.0, 18114.0, 18308.0, 18214.0, 18756.0, 18114.0, 18294.0, 18744.0, 18706.0, 18708.0, 18354.0, 18206.0, 18830.0, 19070.0, 19034.0, 18114.0, 18624.0, 18902.0, 18968.0, 18344.0, 18036.0, 18936.0, 18198.0, 19126.0, 18234.0, 18906.0, 18172.0, 17854.0, 18750.0, 18752.0, 18388.0, 18260.0, 18890.0, 19036.0, 18342.0, 18748.0, 18174.0]
    },
    "slices": {}
  }
}