{
  "AcquisitionMatrixPE": 110,
  "AcquisitionNumber": 1,
  "AcquisitionTime": "17:56:0.575000",
  "BandwidthPerPixelPhaseEncode": 12.987,
  "BaseResolution": 110,
  "BodyPartExamined": "BRAIN",
  "CoilCombinationMethod": "Sum of Squares",
  "ConsistencyInfo": "N4_VE11C_LATEST_20160120",
  "ConversionSoftware": "dcm2niix",
  "ConversionSoftwareVersion": "v1.0.20211006",
  "DerivedVendorReportedEchoSpacing": 0.000700001,
  "DeviceSerialNumber": "167006",
  "DiffusionScheme": "Monopolar",
  "DwellTime": 2.7e-06,
  "EchoTime": 0.0768,
  "EchoTrainLength": 83,
  "EffectiveEchoSpacing": 0.000700001,
  "FlipAngle": 78,
  "HeudiconvVersion": "0.5.3.post569+g418601f",
  "ImageComments": "Unaliased MB3/PE3/LB SENSE1+",
  "ImageOrientationPatientDICOM": [0.999273, 0.00445138, 0.0378649, 6.95088e-09, 0.993161, -0.116756],
  "ImageOrientationText": "Tra>Cor(-6.7)>Sag(2.2)",
  "ImageType": [
    "ORIGINAL",
    "PRIMARY",
    "DIFFUSION",
    "NONE",
    "MB",
    "ND",
    "MOSAIC"
],
  "ImagingFrequency": 123.259,
  "InPlanePhaseEncodingDirectionDICOM": "COL",
  "InstitutionAddress": "Chemin Queen-Mary 4565,Montreal,District,CA,H3W 1W5",
  "InstitutionName": "IUGM",
  "InstitutionalDepartmentName": "Department",
  "MRAcquisitionType": "2D",
  "MagneticFieldStrength": 3,
  "Manufacturer": "Siemens",
  "ManufacturersModelName": "Prisma_fit",
  "MatrixCoilMode": "SENSE",
  "Modality": "MR",
  "MultibandAccelerationFactor": 3,
  "PartialFourier": 0.75,
  "PatientPosition": "HFS",
  "PercentPhaseFOV": 100,
  "PercentSampling": 100,
  "PhaseEncodingDirection": "j-",
  "PhaseEncodingSteps": 83,
  "PhaseResolution": 1,
  "PixelBandwidth": 1685,
  "ProcedureStepDescription": "anat^generic",
  "ProtocolName": "dMRI_dir106_AP_test_cmrr",
  "PulseSequenceDetails": "%CustomerSeq%\\cmrr_mbep2d_diff",
  "ReceiveCoilActiveElements": "HC1-6",
  "ReceiveCoilName": "HeadNeck_64",
  "ReconMatrixPE": 110,
  "RepetitionTime": 2.243,
  "SAR": 0.11821,
  "ScanOptions": "PFP\\EXT",
  "ScanningSequence": "EP",
  "SequenceName": "ep_b0",
  "SequenceVariant": "SK\\SS",
  "SeriesDescription": "dMRI_dir106_AP_test_cmrr",
  "SeriesNumber": 9,
  "ShimSetting": [636, -7224, -8775, 669, 48, 19, 65, 12],
  "SliceThickness": 2,
  "SliceTiming": [0, 1.17, 0.1175, 1.2875, 0.235, 1.405, 0.3525, 1.5225, 0.4675, 1.6375, 0.585, 1.755, 0.7025, 1.8725, 0.82, 1.99, 0.9375, 2.1075, 1.0525, 0, 1.17, 0.1175, 1.2875, 0.235, 1.405, 0.3525, 1.5225, 0.4675, 1.6375, 0.585, 1.755, 0.7025, 1.8725, 0.82, 1.99, 0.9375, 2.1075, 1.0525, 0, 1.17, 0.1175, 1.2875, 0.235, 1.405, 0.3525, 1.5225, 0.4675, 1.6375, 0.585, 1.755, 0.7025, 1.8725, 0.82, 1.99, 0.9375, 2.1075, 1.0525],
  "SoftwareVersions": "syngo MR E11",
  "SpacingBetweenSlices": 2,
  "StationName": "MRC35049",
  "TotalReadoutTime": 0.0763001,
  "TxRefAmp": 207.954,
  "WipMemBlock": "4c85eba1-8750-4f14-b88b-bf39491f59c7||Sequence: R017 ve11c/master r/75a17815+; Jun 28 2022 16:41:33 by eja",
  "dcmmeta_affine": [
    [-1.9985458850860596, 1.3901756190648484e-08, 0.07625129073858261, 107.90038299560547],
    [-0.00890275277197361, 1.9863213300704956, -0.23334147036075592, -90.19544219970703],
    [0.07572977989912033, 0.23351123929023743, 1.9848772287368774, -32.92301559448242],
    [0.0, 0.0, 0.0, 1.0]
],
  "dcmmeta_reorient_transform": [
    [0.0, -1.0, 0.0, 109.0],
    [1.0, 0.0, 0.0, 0.0],
    [0.0, 0.0, 1.0, 0.0],
    [0.0, 0.0, 0.0, 1.0]
],
  "dcmmeta_shape": [110, 110, 57, 107],
  "dcmmeta_slice_dim": 2,
  "dcmmeta_version": 0.6,
  "global": {
    "const": {
      "AcquisitionMatrix": [110, 0, 0, 110],
      "AngioFlag": "N",
      "BitsAllocated": 16,
      "BitsStored": 16,
      "BodyPartExamined": "BRAIN",
      "CardiacNumberOfImages": 1,
      "Columns": 880,
      "EchoNumbers": 1,
      "EchoTime": 76.8,
      "EchoTrainLength": 83,
      "FlipAngle": 78.0,
      "HighBit": 15,
      "ImageOrientationPatient": [0.99927295333014, 0.00445137644111, 0.03786489126679, 6.950878e-09, 0.99316067405043, -0.1167556230753],
      "ImagePositionPatient": [-877.3405660321, -894.47486404559, 53.275574338157],
      "ImageType": [
        "ORIGINAL",
        "PRIMARY",
        "DIFFUSION",
        "NONE",
        "MB",
        "ND",
        "MOSAIC"
],
      "ImagedNucleus": "1H",
      "ImagingFrequency": 123.258801,
      "InPlanePhaseEncodingDirection": "COL",
      "LargestImagePixelValue": 4095,
      "MRAcquisitionType": "2D",
      "MagneticFieldStrength": 3.0,
      "Manufacturer": "SIEMENS",
      "ManufacturerModelName": "Prisma_fit",
      "Modality": "MR",
      "NominalInterval": 0,
      "NumberOfAverages": 1.0,
      "NumberOfPhaseEncodingSteps": 83,
      "PercentPhaseFieldOfView": 100.0,
      "PercentSampling": 100.0,
      "PerformedProcedureStepStartTime": "174008.912000",
      "PhotometricInterpretation": "MONOCHROME2",
      "PixelBandwidth": 1685.0,
      "PixelRepresentation": 0,
      "PixelSpacing": [2.0, 2.0],
      "ProtocolName": "dMRI_dir106_AP_test_cmrr",
      "RepetitionTime": 2243.0,
      "RescaleIntercept": -4096.0,
      "RescaleSlope": 2.0,
      "RescaleType": "US",
      "Rows": 880,
      "SAR": 0.11820984736833,
      "SamplesPerPixel": 1,
      "ScanOptions": [
        "PFP",
        "EXT"
],
      "ScanningSequence": "EP",
      "SequenceVariant": [
        "SK",
        "SS"
],
      "SeriesDescription": "dMRI_dir106_AP_test_cmrr",
      "SeriesNumber": 9,
      "SeriesTime": "175655.010000",
      "SliceLocation": -18.037130581637,
      "SliceThickness": 2.0,
      "SmallestImagePixelValue": 0,
      "SoftwareVersions": "syngo MR E11",
      "SpacingBetweenSlices": 1.9999999770829,
      "SpecificCharacterSet": "ISO_IR 100",
      "StudyID": "1",
      "StudyTime": "174008.845000",
      "TransmitCoilName": "Body",
      "VariableFlipAngleFlag": "N",
      "WindowCenterWidthExplanation": "Algo1",
      "dBdt": 0.0},
    "slices": {}
  },
  "time": {
    "samples": {
      "AcquisitionNumber": [1, 2, 3, 4, 5, 6, 7, 8, 9, 10, 11, 12, 13, 14, 15, 16, 17, 18, 19, 20, 21, 22, 23, 24, 25, 26, 27, 28, 29, 30, 31, 32, 33, 34, 35, 36, 37, 38, 39, 40, 41, 42, 43, 44, 45, 46, 47, 48, 49, 50, 51, 52, 53, 54, 55, 56, 57, 58, 59, 60, 61, 62, 63, 64, 65, 66, 67, 68, 69, 70, 71, 72, 73, 74, 75, 76, 77, 78, 79, 80, 81, 82, 83, 84, 85, 86, 87, 88, 89, 90, 91, 92, 93, 94, 95, 96, 97, 98, 99, 100, 101, 102, 103, 104, 105, 106, 107],
      "AcquisitionTime": ["175600.575000", "175602.817500", "175605.062500", "175607.305000", "175609.547500", "175611.790000", "175614.032500", "175616.277500", "175618.520000", "175620.762500", "175623.005000", "175625.247500", "175627.492500", "175629.735000", "175631.977500", "175634.220000", "175636.462500", "175638.707500", "175640.950000", "175643.192500", "175645.435000", "175647.677500", "175649.922500", "175652.165000", "175654.407500", "175656.650000", "175658.892500", "175701.137500", "175703.380000", "175705.622500", "175707.865000", "175710.107500", "175712.352500", "175714.595000", "175716.837500", "175719.080000", "175721.322500", "175723.567500", "175725.810000", "175728.052500", "175730.295000", "175732.537500", "175734.782500", "175737.025000", "175739.267500", "175741.510000", "175743.752500", "175745.997500", "175748.240000", "175750.482500", "175752.725000", "175754.967500", "175757.212500", "175759.455000", "175801.697500", "175803.940000", "175806.182500", "175808.427500", "175810.670000", "175812.912500", "175815.155000", "175817.397500", "175819.642500", "175821.885000", "175824.127500", "175826.370000", "175828.612500", "175830.857500", "175833.100000", "175835.342500", "175837.585000", "175839.827500", "175842.072500", "175844.315000", "175846.557500", "175848.800000", "175851.042500", "175853.287500", "175855.530000", "175857.772500", "175900.015000", "175902.257500", "175904.502500", "175906.745000", "175908.987500", "175911.230000", "175913.472500", "175915.717500", "175917.960000", "175920.202500", "175922.445000", "175924.687500", "175926.932500", "175929.175000", "175931.417500", "175933.660000", "175935.902500", "175938.147500", "175940.390000", "175942.632500", "175944.875000", "175947.117500", "175949.362500", "175951.605000", "175953.847500", "175956.090000", "175958.332500"],
      "ContentTime": ["175655.012000", "175655.016000", "175655.019000", "175655.022000", "175655.025000", "175655.028000", "175655.031000", "175655.035000", "175655.038000", "175655.041000", "175655.044000", "175655.047000", "175655.051000", "175655.054000", "175655.057000", "175655.060000", "175655.063000", "175655.067000", "175655.070000", "175655.073000", "175655.076000", "175655.079000", "175655.082000", "175755.013000", "175755.017000", "175755.020000", "175755.023000", "175755.026000", "175755.030000", "175755.033000", "175755.036000", "175755.039000", "175755.042000", "175755.045000", "175755.049000", "175755.052000", "175755.055000", "175755.058000", "175755.061000", "175755.064000", "175755.068000", "175755.071000", "175755.074000", "175755.077000", "175755.080000", "175755.083000", "175755.086000", "175755.090000", "175755.093000", "175755.096000", "175855.565000", "175855.569000", "175855.572000", "175855.575000", "175855.578000", "175855.581000", "175855.585000", "175855.588000", "175855.591000", "175855.594000", "175855.597000", "175855.601000", "175855.604000", "175855.607000", "175855.610000", "175855.613000", "175855.617000", "175855.620000", "175855.623000", "175855.626000", "175855.629000", "175855.633000", "175855.636000", "175855.639000", "175855.642000", "175855.645000", "175855.649000", "175934.955000", "175934.959000", "175934.962000", "175934.965000", "175934.968000", "175934.972000", "175934.975000", "175934.978000", "175934.981000", "175934.984000", "175934.987000", "175934.991000", "175934.994000", "175934.997000", "175935.001000", "175935.005000", "175935.008000", "175935.011000", "180003.463000", "180003.467000", "180003.470000", "180003.474000", "180003.477000", "180003.484000", "180003.487000", "180003.490000", "180003.494000", "180003.497000", "180003.501000", "180003.504000"],
      "InstanceCreationTime": ["175655.012000", "175655.016000", "175655.019000", "175655.022000", "175655.025000", "175655.028000", "175655.031000", "175655.035000", "175655.038000", "175655.041000", "175655.044000", "175655.047000", "175655.051000", "175655.054000", "175655.057000", "175655.060000", "175655.063000", "175655.067000", "175655.070000", "175655.073000", "175655.076000", "175655.079000", "175655.082000", "175755.013000", "175755.017000", "175755.020000", "175755.023000", "175755.026000", "175755.030000", "175755.033000", "175755.036000", "175755.039000", "175755.042000", "175755.045000", "175755.049000", "175755.052000", "175755.055000", "175755.058000", "175755.061000", "175755.064000", "175755.068000", "175755.071000", "175755.074000", "175755.077000", "175755.080000", "175755.083000", "175755.086000", "175755.090000", "175755.093000", "175755.096000", "175855.565000", "175855.569000", "175855.572000", "175855.575000", "175855.578000", "175855.581000", "175855.585000", "175855.588000", "175855.591000", "175855.594000", "175855.597000", "175855.601000", "175855.604000", "175855.607000", "175855.610000", "175855.613000", "175855.617000", "175855.620000", "175855.623000", "175855.626000", "175855.629000", "175855.633000", "175855.636000", "175855.639000", "175855.642000", "175855.645000", "175855.649000", "175934.955000", "175934.959000", "175934.962000", "175934.965000", "175934.968000", "175934.972000", "175934.975000", "175934.978000", "175934.981000", "175934.984000", "175934.987000", "175934.991000", "175934.994000", "175934.997000", "175935.001000", "175935.005000", "175935.008000", "175935.011000", "180003.463000", "180003.467000", "180003.470000", "180003.474000", "180003.477000", "180003.484000", "180003.487000", "180003.490000", "180003.494000", "180003.497000", "180003.501000", "180003.504000"],
      "InstanceNumber": [1, 2, 3, 4, 5, 6, 7, 8, 9, 10, 11, 12, 13, 14, 15, 16, 17, 18, 19, 20, 21, 22, 23, 24, 25, 26, 27, 28, 29, 30, 31, 32, 33, 34, 35, 36, 37, 38, 39, 40, 41, 42, 43, 44, 45, 46, 47, 48, 49, 50, 51, 52, 53, 54, 55, 56, 57, 58, 59, 60, 61, 62, 63, 64, 65, 66, 67, 68, 69, 70, 71, 72, 73, 74, 75, 76, 77, 78, 79, 80, 81, 82, 83, 84, 85, 86, 87, 88, 89, 90, 91, 92, 93, 94, 95, 96, 97, 98, 99, 100, 101, 102, 103, 104, 105, 106, 107],
      "SequenceName": [
 "ep_b0",
 "ep_b0",
 "ep_b1000#2",
 "ep_b2000#3",
 "ep_b1000#4",
 "ep_b1000#5",
 "ep_b300#6",
 "ep_b2000#7",
 "ep_b2000#8",
 "ep_b2000#9",
 "ep_b1000#10",
 "ep_b300#11",
 "ep_b2000#12",
 "ep_b2000#13",
 "ep_b2000#14",
 "ep_b2000#15",
 "ep_b1000#16",
 "ep_b2000#17",
 "ep_b2000#18",
 "ep_b2000#19",
 "ep_b2000#20",
 "ep_b0",
 "ep_b1000#22",
 "ep_b2000#23",
 "ep_b1000#24",
 "ep_b1000#25",
 "ep_b2000#26",
 "ep_b2000#27",
 "ep_b2000#28",
 "ep_b2000#29",
 "ep_b300#30",
 "ep_b2000#31",
 "ep_b1000#32",
 "ep_b2000#33",
 "ep_b2000#34",
 "ep_b300#35",
 "ep_b2000#36",
 "ep_b2000#37",
 "ep_b1000#38",
 "ep_b2000#39",
 "ep_b2000#40",
 "ep_b0",
 "ep_b2000#42",
 "ep_b2000#43",
 "ep_b2000#44",
 "ep_b300#45",
 "ep_b1000#46",
 "ep_b2000#47",
 "ep_b2000#48",
 "ep_b1000#49",
 "ep_b2000#50",
 "ep_b1000#51",
 "ep_b1000#52",
 "ep_b2000#53",
 "ep_b300#54",
 "ep_b1000#55",
 "ep_b2000#56",
 "ep_b1000#57",
 "ep_b2000#58",
 "ep_b2000#59",
 "ep_b1000#60",
 "ep_b0",
 "ep_b1000#62",
 "ep_b2000#63",
 "ep_b2000#64",
 "ep_b2000#65",
 "ep_b2000#66",
 "ep_b300#67",
 "ep_b1000#68",
 "ep_b1000#69",
 "ep_b2000#70",
 "ep_b2000#71",
 "ep_b2000#72",
 "ep_b2000#73",
 "ep_b1000#74",
 "ep_b2000#75",
 "ep_b2000#76",
 "ep_b2000#77",
 "ep_b1000#78",
 "ep_b1000#79",
 "ep_b2000#80",
 "ep_b0",
 "ep_b1000#82",
 "ep_b2000#83",
 "ep_b2000#84",
 "ep_b1000#85",
 "ep_b1000#86",
 "ep_b2000#87",
 "ep_b1000#88",
 "ep_b2000#89",
 "ep_b2000#90",
 "ep_b2000#91",
 "ep_b1000#92",
 "ep_b2000#93",
 "ep_b2000#94",
 "ep_b2000#95",
 "ep_b300#96",
 "ep_b1000#97",
 "ep_b2000#98",
 "ep_b1000#99",
 "ep_b1000#100",
 "ep_b0",
 "ep_b2000#102",
 "ep_b2000#103",
 "ep_b1000#104",
 "ep_b2000#105",
 "ep_b2000#106"
],
      "TriggerTime": [12842.5, 15085.0, 17330.0, 19572.5, 21815.0, 24057.5, 26300.0, 28545.0, 30787.5, 33030.0, 35272.5, 37515.0, 39760.0, 42002.5, 44245.0, 46487.5, 48730.0, 50975.0, 53217.5, 55460.0, 57702.5, 59945.0, 62190.0, 64432.5, 66675.0, 68917.5, 71160.0, 73405.0, 75647.5, 77890.0, 80132.5, 82375.0, 84620.0, 86862.5, 89105.0, 91347.5, 93590.0, 95835.0, 98077.5, 100320.0, 102562.5, 104805.0, 107050.0, 109292.5, 111535.0, 113777.5, 116020.0, 118265.0, 120507.5, 122750.0, 124992.5, 127235.0, 129480.0, 131722.5, 133965.0, 136207.5, 138450.0, 140695.0, 142937.5, 145180.0, 147422.5, 149665.0, 151910.0, 154152.5, 156395.0, 158637.5, 160880.0, 163125.0, 165367.5, 167610.0, 169852.5, 172095.0, 174340.0, 176582.5, 178825.0, 181067.5, 183310.0, 185555.0, 187797.5, 190040.0, 192282.5, 194525.0, 196770.0, 199012.5, 201255.0, 203497.5, 205740.0, 207985.0, 210227.5, 212470.0, 214712.5, 216955.0, 219200.0, 221442.5, 223685.0, 225927.5, 228170.0, 230415.0, 232657.5, 234900.0, 237142.5, 239385.0, 241630.0, 243872.5, 246115.0, 248357.5, 250600.0],
      "WindowCenter": [4522.0, 4522.0, 4268.0, 4540.0, 4676.0, 4692.0, 4536.0, 4412.0, 4748.0, 4460.0, 4636.0, 4526.0, 4968.0, 5208.0, 4984.0, 4660.0, 4962.0, 4790.0, 4072.0, 4788.0, 4456.0, 4528.0, 5008.0, 4396.0, 4550.0, 4752.0, 4748.0, 4540.0, 5000.0, 4526.0, 4652.0, 4704.0, 4752.0, 4768.0, 4882.0, 4440.0, 5080.0, 4464.0, 4952.0, 4596.0, 5006.0, 4426.0, 4430.0, 4644.0, 4962.0, 4550.0, 4286.0, 5044.0, 4406.0, 4612.0, 4828.0, 5084.0, 4428.0, 4644.0, 4626.0, 4870.0, 4788.0, 4234.0, 5170.0, 4426.0, 4730.0, 4658.0, 4534.0, 4932.0, 4028.0, 4888.0, 4692.0, 4468.0, 4584.0, 5064.0, 4764.0, 4228.0, 4314.0, 4362.0, 4914.0, 4380.0, 4000.0, 4756.0, 4654.0, 4784.0, 4522.0, 4524.0, 5084.0, 5060.0, 4898.0, 4408.0, 4612.0, 5100.0, 5116.0, 4272.0, 4038.0, 4946.0, 4318.0, 4878.0, 4370.0, 4876.0, 4430.0, 4334.0, 4736.0, 4894.0, 4530.0, 4552.0, 4876.0, 5008.0, 4416.0, 4644.0, 4252.0],
      "WindowWidth": [17992.0, 17988.0, 17848.0, 18428.0, 18456.0, 18282.0, 18076.0, 18224.0, 18706.0, 18146.0, 18338.0, 18106.0, 18700.0, 19078.0, 18874.0, 18564.0, 18862.0, 18746.0, 17726.0, 18780.0, 18196.0, 18000.0, 18830.0, 18140.0, 18238.0, 18512.0, 18738.0, 18144.0, 18910.0, 18282.0, 18140.0, 18608.0, 18444.0, 18740.0, 18808.0, 17966.0, 19054.0, 18266.0, 18598.0, 18290.0, 18684.0, 17906.0, 18176.0, 18456.0, 18930.0, 18056.0, 17898.0, 18814.0, 17996.0, 18248.0, 18860.0, 18920.0, 18058.0, 18500.0, 18218.0, 18652.0, 18788.0, 17850.0, 19050.0, 18100.0, 18274.0, 18108.0, 18224.0, 18946.0, 17676.0, 18924.0, 18486.0, 18012.0, 18264.0, 18966.0, 18498.0, 18012.0, 17964.0, 18120.0, 18574.0, 18130.0, 17700.0, 18700.0, 18348.0, 18636.0, 18400.0, 17996.0, 18790.0, 19012.0, 18916.0, 18100.0, 18304.0, 19078.0, 18952.0, 18034.0, 17726.0, 18818.0, 17920.0, 18956.0, 18020.0, 18866.0, 17906.0, 18006.0, 18736.0, 18678.0, 18244.0, 18030.0, 18664.0, 19124.0, 17946.0, 18560.0, 18038.0]
    },
    "slices": {}
  }
}