{
  "AcquisitionMatrixPE": 110,
  "AcquisitionNumber": 1,
  "AcquisitionTime": "18:00:37.460000",
  "BandwidthPerPixelPhaseEncode": 12.987,
  "BaseResolution": 110,
  "BodyPartExamined": "BRAIN",
  "CoilCombinationMethod": "Sum of Squares",
  "ConsistencyInfo": "N4_VE11C_LATEST_20160120",
  "ConversionSoftware": "dcm2niix",
  "ConversionSoftwareVersion": "v1.0.20211006",
  "DerivedVendorReportedEchoSpacing": 0.000700001,
  "DeviceSerialNumber": "167006",
  "DiffusionScheme": "Monopolar",
  "DwellTime": 2.7e-06,
  "EchoTime": 0.0768,
  "EchoTrainLength": 83,
  "EffectiveEchoSpacing": 0.000700001,
  "FlipAngle": 78,
  "HeudiconvVersion": "0.5.3.post569+g418601f",
  "ImageComments": "Unaliased MB3/PE3/LB SENSE1+",
  "ImageOrientationPatientDICOM": [0.999273, 0.00445138, 0.0378649, 6.95088e-09, 0.993161, -0.116756],
  "ImageOrientationText": "Tra>Cor(-6.7)>Sag(2.2)",
  "ImageType": [
    "ORIGINAL",
    "PRIMARY",
    "DIFFUSION",
    "NONE",
    "MB",
    "ND",
    "MOSAIC"
],
  "ImagingFrequency": 123.259,
  "InPlanePhaseEncodingDirectionDICOM": "COL",
  "InstitutionAddress": "Chemin Queen-Mary 4565,Montreal,District,CA,H3W 1W5",
  "InstitutionName": "IUGM",
  "InstitutionalDepartmentName": "Department",
  "MRAcquisitionType": "2D",
  "MagneticFieldStrength": 3,
  "Manufacturer": "Siemens",
  "ManufacturersModelName": "Prisma_fit",
  "MatrixCoilMode": "SENSE",
  "Modality": "MR",
  "MultibandAccelerationFactor": 3,
  "PartialFourier": 0.75,
  "PatientPosition": "HFS",
  "PercentPhaseFOV": 100,
  "PercentSampling": 100,
  "PhaseEncodingDirection": "j",
  "PhaseEncodingSteps": 83,
  "PhaseResolution": 1,
  "PixelBandwidth": 1685,
  "ProcedureStepDescription": "anat^generic",
  "ProtocolName": "dMRI_dir106_PA_test_cmrr",
  "PulseSequenceDetails": "%CustomerSeq%\\cmrr_mbep2d_diff",
  "ReceiveCoilActiveElements": "HC1-6",
  "ReceiveCoilName": "HeadNeck_64",
  "ReconMatrixPE": 110,
  "RepetitionTime": 2.243,
  "SAR": 0.11821,
  "ScanOptions": "PFP\\EXT",
  "ScanningSequence": "EP",
  "SequenceName": "ep_b0",
  "SequenceVariant": "SK\\SS",
  "SeriesDescription": "dMRI_dir106_PA_test_cmrr",
  "SeriesNumber": 14,
  "ShimSetting": [636, -7224, -8775, 669, 48, 19, 65, 12],
  "SliceThickness": 2,
  "SliceTiming": [0, 1.17, 0.115, 1.285, 0.2325, 1.4025, 0.35, 1.52, 0.4675, 1.6375, 0.585, 1.755, 0.7, 1.87, 0.8175, 1.9875, 0.935, 2.105, 1.0525, 0, 1.17, 0.115, 1.285, 0.2325, 1.4025, 0.35, 1.52, 0.4675, 1.6375, 0.585, 1.755, 0.7, 1.87, 0.8175, 1.9875, 0.935, 2.105, 1.0525, 0, 1.17, 0.115, 1.285, 0.2325, 1.4025, 0.35, 1.52, 0.4675, 1.6375, 0.585, 1.755, 0.7, 1.87, 0.8175, 1.9875, 0.935, 2.105, 1.0525],
  "SoftwareVersions": "syngo MR E11",
  "SpacingBetweenSlices": 2,
  "StationName": "MRC35049",
  "TotalReadoutTime": 0.0763001,
  "TxRefAmp": 207.954,
  "WipMemBlock": "214c9ea4-dc66-4b6f-86eb-391a37a1151c||Sequence: R017 ve11c/master r/75a17815+; Jun 28 2022 16:41:33 by eja",
  "dcmmeta_affine": [
    [-1.9985458850860596, 1.3901756190648484e-08, 0.07625129073858261, 107.90038299560547],
    [-0.00890275277197361, 1.9863213300704956, -0.23334147036075592, -90.19544219970703],
    [0.07572977989912033, 0.23351123929023743, 1.9848772287368774, -32.92301559448242],
    [0.0, 0.0, 0.0, 1.0]
],
  "dcmmeta_reorient_transform": [
    [0.0, -1.0, 0.0, 109.0],
    [1.0, 0.0, 0.0, 0.0],
    [0.0, 0.0, 1.0, 0.0],
    [0.0, 0.0, 0.0, 1.0]
],
  "dcmmeta_shape": [110, 110, 57, 107],
  "dcmmeta_slice_dim": 2,
  "dcmmeta_version": 0.6,
  "global": {
    "const": {
      "AcquisitionMatrix": [110, 0, 0, 110],
      "AngioFlag": "N",
      "BitsAllocated": 16,
      "BitsStored": 16,
      "BodyPartExamined": "BRAIN",
      "CardiacNumberOfImages": 1,
      "Columns": 880,
      "EchoNumbers": 1,
      "EchoTime": 76.8,
      "EchoTrainLength": 83,
      "FlipAngle": 78.0,
      "HighBit": 15,
      "ImageOrientationPatient": [0.99927295333014, 0.00445137644111, 0.03786489126679, 6.950878e-09, 0.99316067405043, -0.1167556230753],
      "ImagePositionPatient": [-877.3405660321, -894.47486404559, 53.275574338157],
      "ImageType": [
        "ORIGINAL",
        "PRIMARY",
        "DIFFUSION",
        "NONE",
        "MB",
        "ND",
        "MOSAIC"
],
      "ImagedNucleus": "1H",
      "ImagingFrequency": 123.258805,
      "InPlanePhaseEncodingDirection": "COL",
      "LargestImagePixelValue": 4095,
      "MRAcquisitionType": "2D",
      "MagneticFieldStrength": 3.0,
      "Manufacturer": "SIEMENS",
      "ManufacturerModelName": "Prisma_fit",
      "Modality": "MR",
      "NominalInterval": 0,
      "NumberOfAverages": 1.0,
      "NumberOfPhaseEncodingSteps": 83,
      "PercentPhaseFieldOfView": 100.0,
      "PercentSampling": 100.0,
      "PerformedProcedureStepStartTime": "174008.912000",
      "PhotometricInterpretation": "MONOCHROME2",
      "PixelBandwidth": 1685.0,
      "PixelRepresentation": 0,
      "PixelSpacing": [2.0, 2.0],
      "ProtocolName": "dMRI_dir106_PA_test_cmrr",
      "RepetitionTime": 2243.0,
      "RescaleIntercept": -4096.0,
      "RescaleSlope": 2.0,
      "RescaleType": "US",
      "Rows": 880,
      "SAR": 0.11820984736833,
      "SamplesPerPixel": 1,
      "ScanOptions": [
        "PFP",
        "EXT"
],
      "ScanningSequence": "EP",
      "SequenceVariant": [
        "SK",
        "SS"
],
      "SeriesDescription": "dMRI_dir106_PA_test_cmrr",
      "SeriesNumber": 14,
      "SeriesTime": "180139.995000",
      "SliceLocation": -18.037130581637,
      "SliceThickness": 2.0,
      "SmallestImagePixelValue": 0,
      "SoftwareVersions": "syngo MR E11",
      "SpacingBetweenSlices": 1.9999999770829,
      "SpecificCharacterSet": "ISO_IR 100",
      "StudyID": "1",
      "StudyTime": "174008.845000",
      "TransmitCoilName": "Body",
      "VariableFlipAngleFlag": "N",
      "WindowCenterWidthExplanation": "Algo1",
      "dBdt": 0.0},
    "slices": {}
  },
  "time": {
    "samples": {
      "AcquisitionNumber": [1, 2, 3, 4, 5, 6, 7, 8, 9, 10, 11, 12, 13, 14, 15, 16, 17, 18, 19, 20, 21, 22, 23, 24, 25, 26, 27, 28, 29, 30, 31, 32, 33, 34, 35, 36, 37, 38, 39, 40, 41, 42, 43, 44, 45, 46, 47, 48, 49, 50, 51, 52, 53, 54, 55, 56, 57, 58, 59, 60, 61, 62, 63, 64, 65, 66, 67, 68, 69, 70, 71, 72, 73, 74, 75, 76, 77, 78, 79, 80, 81, 82, 83, 84, 85, 86, 87, 88, 89, 90, 91, 92, 93, 94, 95, 96, 97, 98, 99, 100, 101, 102, 103, 104, 105, 106, 107],
      "AcquisitionTime": ["180037.460000", "180039.702500", "180041.945000", "180044.187500", "180046.430000", "180048.675000", "180050.917500", "180053.160000", "180055.402500", "180057.645000", "180059.890000", "180102.132500", "180104.375000", "180106.617500", "180108.860000", "180111.105000", "180113.347500", "180115.590000", "180117.832500", "180120.075000", "180122.320000", "180124.562500", "180126.805000", "180129.047500", "180131.290000", "180133.535000", "180135.777500", "180138.020000", "180140.262500", "180142.505000", "180144.750000", "180146.992500", "180149.235000", "180151.477500", "180153.720000", "180155.965000", "180158.207500", "180200.450000", "180202.692500", "180204.935000", "180207.180000", "180209.422500", "180211.665000", "180213.907500", "180216.150000", "180218.395000", "180220.637500", "180222.880000", "180225.122500", "180227.365000", "180229.610000", "180231.852500", "180234.095000", "180236.337500", "180238.580000", "180240.825000", "180243.067500", "180245.310000", "180247.552500", "180249.795000", "180252.040000", "180254.282500", "180256.525000", "180258.767500", "180301.010000", "180303.255000", "180305.497500", "180307.740000", "180309.982500", "180312.225000", "180314.470000", "180316.712500", "180318.955000", "180321.197500", "180323.440000", "180325.685000", "180327.927500", "180330.170000", "180332.412500", "180334.655000", "180336.900000", "180339.142500", "180341.385000", "180343.627500", "180345.870000", "180348.115000", "180350.357500", "180352.600000", "180354.842500", "180357.085000", "180359.330000", "180401.572500", "180403.815000", "180406.057500", "180408.300000", "180410.545000", "180412.787500", "180415.030000", "180417.272500", "180419.515000", "180421.760000", "180424.002500", "180426.245000", "180428.487500", "180430.730000", "180432.975000", "180435.217500"],
      "ContentTime": ["180139.998000", "180140.002000", "180140.005000", "180140.009000", "180140.012000", "180140.015000", "180140.018000", "180140.021000", "180140.024000", "180140.028000", "180140.031000", "180140.034000", "180140.037000", "180140.040000", "180140.043000", "180140.047000", "180140.050000", "180140.053000", "180140.056000", "180140.059000", "180140.062000", "180140.065000", "180140.069000", "180140.072000", "180140.075000", "180140.078000", "180140.081000", "180239.926000", "180239.929000", "180239.933000", "180239.936000", "180239.939000", "180239.942000", "180239.945000", "180239.948000", "180239.952000", "180239.955000", "180239.958000", "180239.961000", "180239.964000", "180239.968000", "180239.971000", "180239.974000", "180239.977000", "180239.980000", "180239.983000", "180239.987000", "180239.990000", "180239.993000", "180239.996000", "180240.000000", "180240.004000", "180240.007000", "180240.017000", "180339.923000", "180339.927000", "180339.930000", "180339.933000", "180339.936000", "180339.939000", "180339.943000", "180339.946000", "180339.949000", "180339.952000", "180339.955000", "180339.958000", "180339.962000", "180339.965000", "180339.968000", "180339.971000", "180339.974000", "180339.977000", "180339.981000", "180339.984000", "180339.987000", "180339.990000", "180339.993000", "180339.996000", "180340.001000", "180340.004000", "180340.007000", "180439.636000", "180439.640000", "180439.643000", "180439.646000", "180439.649000", "180439.653000", "180439.656000", "180439.659000", "180439.662000", "180439.665000", "180439.669000", "180439.672000", "180439.675000", "180439.678000", "180439.682000", "180439.685000", "180439.688000", "180439.691000", "180439.694000", "180439.697000", "180439.701000", "180439.704000", "180439.707000", "180439.710000", "180439.713000", "180439.717000"],
      "InstanceCreationTime": ["180139.998000", "180140.002000", "180140.005000", "180140.009000", "180140.012000", "180140.015000", "180140.018000", "180140.021000", "180140.024000", "180140.028000", "180140.031000", "180140.034000", "180140.037000", "180140.040000", "180140.043000", "180140.047000", "180140.050000", "180140.053000", "180140.056000", "180140.059000", "180140.062000", "180140.065000", "180140.069000", "180140.072000", "180140.075000", "180140.078000", "180140.081000", "180239.926000", "180239.929000", "180239.933000", "180239.936000", "180239.939000", "180239.942000", "180239.945000", "180239.948000", "180239.952000", "180239.955000", "180239.958000", "180239.961000", "180239.964000", "180239.968000", "180239.971000", "180239.974000", "180239.977000", "180239.980000", "180239.983000", "180239.987000", "180239.990000", "180239.993000", "180239.996000", "180240.000000", "180240.004000", "180240.007000", "180240.017000", "180339.923000", "180339.927000", "180339.930000", "180339.933000", "180339.936000", "180339.939000", "180339.943000", "180339.946000", "180339.949000", "180339.952000", "180339.955000", "180339.958000", "180339.962000", "180339.965000", "180339.968000", "180339.971000", "180339.974000", "180339.977000", "180339.981000", "180339.984000", "180339.987000", "180339.990000", "180339.993000", "180339.996000", "180340.001000", "180340.004000", "180340.007000", "180439.636000", "180439.640000", "180439.643000", "180439.646000", "180439.649000", "180439.653000", "180439.656000", "180439.659000", "180439.662000", "180439.665000", "180439.669000", "180439.672000", "180439.675000", "180439.678000", "180439.682000", "180439.685000", "180439.688000", "180439.691000", "180439.694000", "180439.697000", "180439.701000", "180439.704000", "180439.707000", "180439.710000", "180439.713000", "180439.717000"],
      "InstanceNumber": [1, 2, 3, 4, 5, 6, 7, 8, 9, 10, 11, 12, 13, 14, 15, 16, 17, 18, 19, 20, 21, 22, 23, 24, 25, 26, 27, 28, 29, 30, 31, 32, 33, 34, 35, 36, 37, 38, 39, 40, 41, 42, 43, 44, 45, 46, 47, 48, 49, 50, 51, 52, 53, 54, 55, 56, 57, 58, 59, 60, 61, 62, 63, 64, 65, 66, 67, 68, 69, 70, 71, 72, 73, 74, 75, 76, 77, 78, 79, 80, 81, 82, 83, 84, 85, 86, 87, 88, 89, 90, 91, 92, 93, 94, 95, 96, 97, 98, 99, 100, 101, 102, 103, 104, 105, 106, 107],
      "SequenceName": [
 "ep_b0",
 "ep_b0",
 "ep_b1000#2",
 "ep_b2000#3",
 "ep_b1000#4",
 "ep_b1000#5",
 "ep_b300#6",
 "ep_b2000#7",
 "ep_b2000#8",
 "ep_b2000#9",
 "ep_b1000#10",
 "ep_b300#11",
 "ep_b2000#12",
 "ep_b2000#13",
 "ep_b2000#14",
 "ep_b2000#15",
 "ep_b1000#16",
 "ep_b2000#17",
 "ep_b2000#18",
 "ep_b2000#19",
 "ep_b2000#20",
 "ep_b0",
 "ep_b1000#22",
 "ep_b2000#23",
 "ep_b1000#24",
 "ep_b1000#25",
 "ep_b2000#26",
 "ep_b2000#27",
 "ep_b2000#28",
 "ep_b2000#29",
 "ep_b300#30",
 "ep_b2000#31",
 "ep_b1000#32",
 "ep_b2000#33",
 "ep_b2000#34",
 "ep_b300#35",
 "ep_b2000#36",
 "ep_b2000#37",
 "ep_b1000#38",
 "ep_b2000#39",
 "ep_b2000#40",
 "ep_b0",
 "ep_b2000#42",
 "ep_b2000#43",
 "ep_b2000#44",
 "ep_b300#45",
 "ep_b1000#46",
 "ep_b2000#47",
 "ep_b2000#48",
 "ep_b1000#49",
 "ep_b2000#50",
 "ep_b1000#51",
 "ep_b1000#52",
 "ep_b2000#53",
 "ep_b300#54",
 "ep_b1000#55",
 "ep_b2000#56",
 "ep_b1000#57",
 "ep_b2000#58",
 "ep_b2000#59",
 "ep_b1000#60",
 "ep_b0",
 "ep_b1000#62",
 "ep_b2000#63",
 "ep_b2000#64",
 "ep_b2000#65",
 "ep_b2000#66",
 "ep_b300#67",
 "ep_b1000#68",
 "ep_b1000#69",
 "ep_b2000#70",
 "ep_b2000#71",
 "ep_b2000#72",
 "ep_b2000#73",
 "ep_b1000#74",
 "ep_b2000#75",
 "ep_b2000#76",
 "ep_b2000#77",
 "ep_b1000#78",
 "ep_b1000#79",
 "ep_b2000#80",
 "ep_b0",
 "ep_b1000#82",
 "ep_b2000#83",
 "ep_b2000#84",
 "ep_b1000#85",
 "ep_b1000#86",
 "ep_b2000#87",
 "ep_b1000#88",
 "ep_b2000#89",
 "ep_b2000#90",
 "ep_b2000#91",
 "ep_b1000#92",
 "ep_b2000#93",
 "ep_b2000#94",
 "ep_b2000#95",
 "ep_b300#96",
 "ep_b1000#97",
 "ep_b2000#98",
 "ep_b1000#99",
 "ep_b1000#100",
 "ep_b0",
 "ep_b2000#102",
 "ep_b2000#103",
 "ep_b1000#104",
 "ep_b2000#105",
 "ep_b2000#106"
],
      "TriggerTime": [12835.0, 15080.0, 17322.5, 19565.0, 21807.5, 24050.0, 26295.0, 28537.5, 30780.0, 33022.5, 35265.0, 37510.0, 39752.5, 41995.0, 44237.5, 46480.0, 48725.0, 50967.5, 53210.0, 55452.5, 57695.0, 59940.0, 62182.5, 64425.0, 66667.5, 68910.0, 71155.0, 73397.5, 75640.0, 77882.5, 80125.0, 82370.0, 84612.5, 86855.0, 89097.5, 91340.0, 93585.0, 95827.5, 98070.0, 100312.5, 102555.0, 104800.0, 107042.5, 109285.0, 111527.5, 113770.0, 116015.0, 118257.5, 120500.0, 122742.5, 124985.0, 127230.0, 129472.5, 131715.0, 133957.5, 136200.0, 138445.0, 140687.5, 142930.0, 145172.5, 147415.0, 149660.0, 151902.5, 154145.0, 156387.5, 158630.0, 160875.0, 163117.5, 165360.0, 167602.5, 169845.0, 172090.0, 174332.5, 176575.0, 178817.5, 181060.0, 183305.0, 185547.5, 187790.0, 190032.5, 192275.0, 194520.0, 196762.5, 199005.0, 201247.5, 203490.0, 205735.0, 207977.5, 210220.0, 212462.5, 214705.0, 216950.0, 219192.5, 221435.0, 223677.5, 225920.0, 228165.0, 230407.5, 232650.0, 234892.5, 237135.0, 239380.0, 241622.5, 243865.0, 246107.5, 248350.0, 250595.0],
      "WindowCenter": [4466.0, 4466.0, 4282.0, 4614.0, 4608.0, 4798.0, 4472.0, 4476.0, 4652.0, 4638.0, 4718.0, 4538.0, 4912.0, 5202.0, 4936.0, 4554.0, 4900.0, 4764.0, 4108.0, 4740.0, 4458.0, 4464.0, 4956.0, 4298.0, 4514.0, 4786.0, 4700.0, 4646.0, 5078.0, 4506.0, 4584.0, 4644.0, 4678.0, 4720.0, 4846.0, 4486.0, 5140.0, 4564.0, 4936.0, 4540.0, 4998.0, 4416.0, 4404.0, 4634.0, 5042.0, 4562.0, 4386.0, 4872.0, 4470.0, 4728.0, 4802.0, 4936.0, 4302.0, 4696.0, 4532.0, 4788.0, 4778.0, 4334.0, 5098.0, 4544.0, 4746.0, 4618.0, 4466.0, 5000.0, 4076.0, 4886.0, 4682.0, 4452.0, 4614.0, 4982.0, 4686.0, 4346.0, 4512.0, 4356.0, 4768.0, 4296.0, 4234.0, 4682.0, 4690.0, 4792.0, 4602.0, 4492.0, 5002.0, 5078.0, 4906.0, 4486.0, 4736.0, 5122.0, 5064.0, 4336.0, 4138.0, 5016.0, 4352.0, 4864.0, 4364.0, 4858.0, 4488.0, 4292.0, 4728.0, 4906.0, 4578.0, 4522.0, 4788.0, 5138.0, 4552.0, 4676.0, 4192.0],
      "WindowWidth": [17926.0, 17924.0, 17892.0, 18562.0, 18428.0, 18450.0, 17990.0, 18356.0, 18608.0, 18494.0, 18414.0, 18164.0, 18748.0, 18946.0, 18886.0, 18436.0, 18782.0, 18710.0, 17804.0, 18736.0, 18248.0, 17924.0, 18810.0, 18050.0, 18190.0, 18640.0, 18692.0, 18398.0, 19074.0, 18360.0, 18070.0, 18614.0, 18276.0, 18698.0, 18712.0, 18066.0, 19080.0, 18470.0, 18524.0, 18316.0, 18720.0, 17900.0, 18150.0, 18552.0, 19060.0, 18130.0, 18064.0, 18742.0, 18142.0, 18486.0, 18822.0, 18654.0, 17882.0, 18558.0, 18090.0, 18492.0, 18776.0, 17984.0, 18992.0, 18326.0, 18348.0, 18066.0, 18152.0, 19020.0, 17794.0, 18922.0, 18430.0, 18038.0, 18430.0, 18886.0, 18362.0, 18186.0, 18230.0, 18162.0, 18402.0, 18012.0, 18044.0, 18648.0, 18514.0, 18710.0, 18562.0, 17962.0, 18652.0, 18934.0, 18900.0, 18284.0, 18560.0, 19004.0, 18808.0, 18124.0, 17890.0, 18818.0, 17980.0, 18952.0, 18026.0, 18868.0, 18062.0, 18016.0, 18740.0, 18742.0, 18418.0, 17982.0, 18674.0, 19282.0, 18200.0, 18652.0, 17974.0]
    },
    "slices": {}
  }
}