{
  "AcquisitionMatrixPE": 110,
  "AcquisitionNumber": 1,
  "AcquisitionTime": "17:56:0.575000",
  "BandwidthPerPixelPhaseEncode": 12.987,
  "BaseResolution": 110,
  "BodyPartExamined": "BRAIN",
  "CoilCombinationMethod": "Sum of Squares",
  "ConsistencyInfo": "N4_VE11C_LATEST_20160120",
  "ConversionSoftware": "dcm2niix",
  "ConversionSoftwareVersion": "v1.0.20211006",
  "DerivedVendorReportedEchoSpacing": 0.000700001,
  "DeviceSerialNumber": "167006",
  "DiffusionScheme": "Monopolar",
  "DwellTime": 2.7e-06,
  "EchoTime": 0.0768,
  "EchoTrainLength": 83,
  "EffectiveEchoSpacing": 0.000700001,
  "FlipAngle": 78,
  "HeudiconvVersion": "0.5.3.post569+g418601f",
  "ImageComments": "Unaliased MB3/PE3/LB SENSE1+",
  "ImageOrientationPatientDICOM": [0.999273, 0.00445138, 0.0378649, 6.95088e-09, 0.993161, -0.116756],
  "ImageOrientationText": "Tra>Cor(-6.7)>Sag(2.2)",
  "ImageType": [
    "ORIGINAL",
    "PRIMARY",
    "DIFFUSION",
    "NONE",
    "MB",
    "ND",
    "MOSAIC"
],
  "ImagingFrequency": 123.259,
  "InPlanePhaseEncodingDirectionDICOM": "COL",
  "InstitutionAddress": "Chemin Queen-Mary 4565,Montreal,District,CA,H3W 1W5",
  "InstitutionName": "IUGM",
  "InstitutionalDepartmentName": "Department",
  "MRAcquisitionType": "2D",
  "MagneticFieldStrength": 3,
  "Manufacturer": "Siemens",
  "ManufacturersModelName": "Prisma_fit",
  "MatrixCoilMode": "SENSE",
  "Modality": "MR",
  "MultibandAccelerationFactor": 3,
  "PartialFourier": 0.75,
  "PatientPosition": "HFS",
  "PercentPhaseFOV": 100,
  "PercentSampling": 100,
  "PhaseEncodingDirection": "j-",
  "PhaseEncodingSteps": 83,
  "PhaseResolution": 1,
  "PixelBandwidth": 1685,
  "ProcedureStepDescription": "anat^generic",
  "ProtocolName": "dMRI_dir106_AP_test_cmrr",
  "PulseSequenceDetails": "%CustomerSeq%\\cmrr_mbep2d_diff",
  "ReceiveCoilActiveElements": "HC1-6",
  "ReceiveCoilName": "HeadNeck_64",
  "ReconMatrixPE": 110,
  "RepetitionTime": 2.243,
  "SAR": 0.11821,
  "ScanOptions": "PFP\\EXT",
  "ScanningSequence": "EP",
  "SequenceName": "ep_b0",
  "SequenceVariant": "SK\\SS",
  "SeriesDescription": "dMRI_dir106_AP_test_cmrr",
  "SeriesNumber": 8,
  "ShimSetting": [636, -7224, -8775, 669, 48, 19, 65, 12],
  "SliceThickness": 2,
  "SliceTiming": [0, 1.17, 0.1175, 1.2875, 0.235, 1.405, 0.3525, 1.5225, 0.4675, 1.6375, 0.585, 1.755, 0.7025, 1.8725, 0.82, 1.99, 0.9375, 2.1075, 1.0525, 0, 1.17, 0.1175, 1.2875, 0.235, 1.405, 0.3525, 1.5225, 0.4675, 1.6375, 0.585, 1.755, 0.7025, 1.8725, 0.82, 1.99, 0.9375, 2.1075, 1.0525, 0, 1.17, 0.1175, 1.2875, 0.235, 1.405, 0.3525, 1.5225, 0.4675, 1.6375, 0.585, 1.755, 0.7025, 1.8725, 0.82, 1.99, 0.9375, 2.1075, 1.0525],
  "SoftwareVersions": "syngo MR E11",
  "SpacingBetweenSlices": 2,
  "StationName": "MRC35049",
  "TotalReadoutTime": 0.0763001,
  "TxRefAmp": 207.954,
  "WipMemBlock": "4c85eba1-8750-4f14-b88b-bf39491f59c7||Sequence: R017 ve11c/master r/75a17815+; Jun 28 2022 16:41:33 by eja",
  "dcmmeta_affine": [
    [-1.9985458850860596, 1.3901756190648484e-08, 0.07625129073858261, 107.90038299560547],
    [-0.00890275277197361, 1.9863213300704956, -0.23334147036075592, -90.19544219970703],
    [0.07572977989912033, 0.23351123929023743, 1.9848772287368774, -32.92301559448242],
    [0.0, 0.0, 0.0, 1.0]
],
  "dcmmeta_reorient_transform": [
    [0.0, -1.0, 0.0, 109.0],
    [1.0, 0.0, 0.0, 0.0],
    [0.0, 0.0, 1.0, 0.0],
    [0.0, 0.0, 0.0, 1.0]
],
  "dcmmeta_shape": [110, 110, 57, 107],
  "dcmmeta_slice_dim": 2,
  "dcmmeta_version": 0.6,
  "global": {
    "const": {
      "AcquisitionMatrix": [110, 0, 0, 110],
      "AngioFlag": "N",
      "BitsAllocated": 16,
      "BitsStored": 16,
      "BodyPartExamined": "BRAIN",
      "CardiacNumberOfImages": 1,
      "Columns": 880,
      "EchoNumbers": 1,
      "EchoTime": 76.8,
      "EchoTrainLength": 83,
      "FlipAngle": 78.0,
      "HighBit": 15,
      "ImageOrientationPatient": [0.99927295333014, 0.00445137644111, 0.03786489126679, 6.950878e-09, 0.99316067405043, -0.1167556230753],
      "ImagePositionPatient": [-877.3405660321, -894.47486404559, 53.275574338157],
      "ImageType": [
        "ORIGINAL",
        "PRIMARY",
        "DIFFUSION",
        "NONE",
        "MB",
        "ND",
        "MOSAIC"
],
      "ImagedNucleus": "1H",
      "ImagingFrequency": 123.258801,
      "InPlanePhaseEncodingDirection": "COL",
      "MRAcquisitionType": "2D",
      "MagneticFieldStrength": 3.0,
      "Manufacturer": "SIEMENS",
      "ManufacturerModelName": "Prisma_fit",
      "Modality": "MR",
      "NominalInterval": 0,
      "NumberOfAverages": 1.0,
      "NumberOfPhaseEncodingSteps": 83,
      "PercentPhaseFieldOfView": 100.0,
      "PercentSampling": 100.0,
      "PerformedProcedureStepStartTime": "174008.912000",
      "PhotometricInterpretation": "MONOCHROME2",
      "PixelBandwidth": 1685.0,
      "PixelRepresentation": 0,
      "PixelSpacing": [2.0, 2.0],
      "ProtocolName": "dMRI_dir106_AP_test_cmrr",
      "RepetitionTime": 2243.0,
      "Rows": 880,
      "SAR": 0.11820984736833,
      "SamplesPerPixel": 1,
      "ScanOptions": [
        "PFP",
        "EXT"
],
      "ScanningSequence": "EP",
      "SequenceVariant": [
        "SK",
        "SS"
],
      "SeriesDescription": "dMRI_dir106_AP_test_cmrr",
      "SeriesNumber": 8,
      "SeriesTime": "175654.900000",
      "SliceLocation": -18.037130581637,
      "SliceThickness": 2.0,
      "SmallestImagePixelValue": 0,
      "SoftwareVersions": "syngo MR E11",
      "SpacingBetweenSlices": 1.9999999770829,
      "SpecificCharacterSet": "ISO_IR 100",
      "StudyID": "1",
      "StudyTime": "174008.845000",
      "TransmitCoilName": "Body",
      "VariableFlipAngleFlag": "N",
      "WindowCenterWidthExplanation": "Algo1",
      "dBdt": 0.0},
    "slices": {}
  },
  "time": {
    "samples": {
      "AcquisitionNumber": [1, 2, 3, 4, 5, 6, 7, 8, 9, 10, 11, 12, 13, 14, 15, 16, 17, 18, 19, 20, 21, 22, 23, 24, 25, 26, 27, 28, 29, 30, 31, 32, 33, 34, 35, 36, 37, 38, 39, 40, 41, 42, 43, 44, 45, 46, 47, 48, 49, 50, 51, 52, 53, 54, 55, 56, 57, 58, 59, 60, 61, 62, 63, 64, 65, 66, 67, 68, 69, 70, 71, 72, 73, 74, 75, 76, 77, 78, 79, 80, 81, 82, 83, 84, 85, 86, 87, 88, 89, 90, 91, 92, 93, 94, 95, 96, 97, 98, 99, 100, 101, 102, 103, 104, 105, 106, 107],
      "AcquisitionTime": ["175600.575000", "175602.817500", "175605.062500", "175607.305000", "175609.547500", "175611.790000", "175614.032500", "175616.277500", "175618.520000", "175620.762500", "175623.005000", "175625.247500", "175627.492500", "175629.735000", "175631.977500", "175634.220000", "175636.462500", "175638.707500", "175640.950000", "175643.192500", "175645.435000", "175647.677500", "175649.922500", "175652.165000", "175654.407500", "175656.650000", "175658.892500", "175701.137500", "175703.380000", "175705.622500", "175707.865000", "175710.107500", "175712.352500", "175714.595000", "175716.837500", "175719.080000", "175721.322500", "175723.567500", "175725.810000", "175728.052500", "175730.295000", "175732.537500", "175734.782500", "175737.025000", "175739.267500", "175741.510000", "175743.752500", "175745.997500", "175748.240000", "175750.482500", "175752.725000", "175754.967500", "175757.212500", "175759.455000", "175801.697500", "175803.940000", "175806.182500", "175808.427500", "175810.670000", "175812.912500", "175815.155000", "175817.397500", "175819.642500", "175821.885000", "175824.127500", "175826.370000", "175828.612500", "175830.857500", "175833.100000", "175835.342500", "175837.585000", "175839.827500", "175842.072500", "175844.315000", "175846.557500", "175848.800000", "175851.042500", "175853.287500", "175855.530000", "175857.772500", "175900.015000", "175902.257500", "175904.502500", "175906.745000", "175908.987500", "175911.230000", "175913.472500", "175915.717500", "175917.960000", "175920.202500", "175922.445000", "175924.687500", "175926.932500", "175929.175000", "175931.417500", "175933.660000", "175935.902500", "175938.147500", "175940.390000", "175942.632500", "175944.875000", "175947.117500", "175949.362500", "175951.605000", "175953.847500", "175956.090000", "175958.332500"],
      "ContentTime": ["175654.903000", "175654.906000", "175654.910000", "175654.913000", "175654.921000", "175654.924000", "175654.927000", "175654.931000", "175654.934000", "175654.937000", "175654.940000", "175654.943000", "175654.946000", "175654.949000", "175654.952000", "175654.956000", "175654.959000", "175654.962000", "175654.965000", "175654.968000", "175654.971000", "175654.974000", "175654.977000", "175754.870000", "175754.873000", "175754.877000", "175754.880000", "175754.883000", "175754.899000", "175754.902000", "175754.905000", "175754.908000", "175754.911000", "175754.914000", "175754.918000", "175754.921000", "175754.924000", "175754.927000", "175754.930000", "175754.933000", "175754.936000", "175754.939000", "175754.942000", "175754.945000", "175754.948000", "175754.952000", "175754.955000", "175754.962000", "175754.965000", "175754.968000", "175854.870000", "175854.874000", "175854.877000", "175854.880000", "175854.883000", "175854.886000", "175854.889000", "175854.893000", "175854.896000", "175854.899000", "175854.902000", "175854.905000", "175854.908000", "175854.912000", "175854.915000", "175854.918000", "175854.921000", "175854.924000", "175854.927000", "175854.931000", "175854.934000", "175854.937000", "175854.940000", "175854.943000", "175854.946000", "175854.950000", "175854.953000", "175934.870000", "175934.874000", "175934.877000", "175934.880000", "175934.883000", "175934.886000", "175934.889000", "175934.892000", "175934.896000", "175934.899000", "175934.902000", "175934.905000", "175934.908000", "175934.911000", "175934.914000", "175934.918000", "175934.921000", "175934.924000", "180003.393000", "180003.397000", "180003.400000", "180003.403000", "180003.406000", "180003.410000", "180003.413000", "180003.416000", "180003.419000", "180003.422000", "180003.425000", "180003.428000"],
      "InstanceCreationTime": ["175654.903000", "175654.906000", "175654.910000", "175654.913000", "175654.921000", "175654.924000", "175654.927000", "175654.931000", "175654.934000", "175654.937000", "175654.940000", "175654.943000", "175654.946000", "175654.949000", "175654.952000", "175654.956000", "175654.959000", "175654.962000", "175654.965000", "175654.968000", "175654.971000", "175654.974000", "175654.977000", "175754.870000", "175754.873000", "175754.877000", "175754.880000", "175754.883000", "175754.899000", "175754.902000", "175754.905000", "175754.908000", "175754.911000", "175754.914000", "175754.918000", "175754.921000", "175754.924000", "175754.927000", "175754.930000", "175754.933000", "175754.936000", "175754.939000", "175754.942000", "175754.945000", "175754.948000", "175754.952000", "175754.955000", "175754.962000", "175754.965000", "175754.968000", "175854.870000", "175854.874000", "175854.877000", "175854.880000", "175854.883000", "175854.886000", "175854.889000", "175854.893000", "175854.896000", "175854.899000", "175854.902000", "175854.905000", "175854.908000", "175854.912000", "175854.915000", "175854.918000", "175854.921000", "175854.924000", "175854.927000", "175854.931000", "175854.934000", "175854.937000", "175854.940000", "175854.943000", "175854.946000", "175854.950000", "175854.953000", "175934.870000", "175934.874000", "175934.877000", "175934.880000", "175934.883000", "175934.886000", "175934.889000", "175934.892000", "175934.896000", "175934.899000", "175934.902000", "175934.905000", "175934.908000", "175934.911000", "175934.914000", "175934.918000", "175934.921000", "175934.924000", "180003.393000", "180003.397000", "180003.400000", "180003.403000", "180003.406000", "180003.410000", "180003.413000", "180003.416000", "180003.419000", "180003.422000", "180003.425000", "180003.428000"],
      "InstanceNumber": [1, 2, 3, 4, 5, 6, 7, 8, 9, 10, 11, 12, 13, 14, 15, 16, 17, 18, 19, 20, 21, 22, 23, 24, 25, 26, 27, 28, 29, 30, 31, 32, 33, 34, 35, 36, 37, 38, 39, 40, 41, 42, 43, 44, 45, 46, 47, 48, 49, 50, 51, 52, 53, 54, 55, 56, 57, 58, 59, 60, 61, 62, 63, 64, 65, 66, 67, 68, 69, 70, 71, 72, 73, 74, 75, 76, 77, 78, 79, 80, 81, 82, 83, 84, 85, 86, 87, 88, 89, 90, 91, 92, 93, 94, 95, 96, 97, 98, 99, 100, 101, 102, 103, 104, 105, 106, 107],
      "LargestImagePixelValue": [32358, 41489, 14787, 7743, 14335, 14728, 25622, 8536, 8642, 7752, 16113, 25292, 8297, 8431, 8460, 8012, 14885, 8181, 7862, 9470, 8258, 33882, 16442, 8016, 15884, 14656, 8753, 7784, 8781, 7656, 24214, 8206, 15235, 8145, 7817, 25251, 10063, 7969, 15151, 7757, 8370, 32044, 8438, 7960, 9164, 25297, 14505, 8475, 7726, 14946, 9133, 15895, 15339, 9772, 25755, 15036, 8624, 14393, 8573, 7919, 15034, 33170, 14418, 8440, 8464, 9119, 8245, 25401, 15606, 15716, 7655, 7759, 8382, 7749, 15552, 7661, 8005, 8090, 15438, 15231, 7703, 33244, 15265, 8811, 8243, 14457, 15186, 8821, 15993, 8138, 8152, 8040, 15423, 9235, 8007, 9782, 23945, 14872, 8300, 15590, 14907, 33736, 8023, 8751, 14287, 8370, 8750],
      "SequenceName": [
 "ep_b0",
 "ep_b0",
 "ep_b1000#2",
 "ep_b2000#3",
 "ep_b1000#4",
 "ep_b1000#5",
 "ep_b300#6",
 "ep_b2000#7",
 "ep_b2000#8",
 "ep_b2000#9",
 "ep_b1000#10",
 "ep_b300#11",
 "ep_b2000#12",
 "ep_b2000#13",
 "ep_b2000#14",
 "ep_b2000#15",
 "ep_b1000#16",
 "ep_b2000#17",
 "ep_b2000#18",
 "ep_b2000#19",
 "ep_b2000#20",
 "ep_b0",
 "ep_b1000#22",
 "ep_b2000#23",
 "ep_b1000#24",
 "ep_b1000#25",
 "ep_b2000#26",
 "ep_b2000#27",
 "ep_b2000#28",
 "ep_b2000#29",
 "ep_b300#30",
 "ep_b2000#31",
 "ep_b1000#32",
 "ep_b2000#33",
 "ep_b2000#34",
 "ep_b300#35",
 "ep_b2000#36",
 "ep_b2000#37",
 "ep_b1000#38",
 "ep_b2000#39",
 "ep_b2000#40",
 "ep_b0",
 "ep_b2000#42",
 "ep_b2000#43",
 "ep_b2000#44",
 "ep_b300#45",
 "ep_b1000#46",
 "ep_b2000#47",
 "ep_b2000#48",
 "ep_b1000#49",
 "ep_b2000#50",
 "ep_b1000#51",
 "ep_b1000#52",
 "ep_b2000#53",
 "ep_b300#54",
 "ep_b1000#55",
 "ep_b2000#56",
 "ep_b1000#57",
 "ep_b2000#58",
 "ep_b2000#59",
 "ep_b1000#60",
 "ep_b0",
 "ep_b1000#62",
 "ep_b2000#63",
 "ep_b2000#64",
 "ep_b2000#65",
 "ep_b2000#66",
 "ep_b300#67",
 "ep_b1000#68",
 "ep_b1000#69",
 "ep_b2000#70",
 "ep_b2000#71",
 "ep_b2000#72",
 "ep_b2000#73",
 "ep_b1000#74",
 "ep_b2000#75",
 "ep_b2000#76",
 "ep_b2000#77",
 "ep_b1000#78",
 "ep_b1000#79",
 "ep_b2000#80",
 "ep_b0",
 "ep_b1000#82",
 "ep_b2000#83",
 "ep_b2000#84",
 "ep_b1000#85",
 "ep_b1000#86",
 "ep_b2000#87",
 "ep_b1000#88",
 "ep_b2000#89",
 "ep_b2000#90",
 "ep_b2000#91",
 "ep_b1000#92",
 "ep_b2000#93",
 "ep_b2000#94",
 "ep_b2000#95",
 "ep_b300#96",
 "ep_b1000#97",
 "ep_b2000#98",
 "ep_b1000#99",
 "ep_b1000#100",
 "ep_b0",
 "ep_b2000#102",
 "ep_b2000#103",
 "ep_b1000#104",
 "ep_b2000#105",
 "ep_b2000#106"
],
      "TriggerTime": [12842.5, 15085.0, 17330.0, 19572.5, 21815.0, 24057.5, 26300.0, 28545.0, 30787.5, 33030.0, 35272.5, 37515.0, 39760.0, 42002.5, 44245.0, 46487.5, 48730.0, 50975.0, 53217.5, 55460.0, 57702.5, 59945.0, 62190.0, 64432.5, 66675.0, 68917.5, 71160.0, 73405.0, 75647.5, 77890.0, 80132.5, 82375.0, 84620.0, 86862.5, 89105.0, 91347.5, 93590.0, 95835.0, 98077.5, 100320.0, 102562.5, 104805.0, 107050.0, 109292.5, 111535.0, 113777.5, 116020.0, 118265.0, 120507.5, 122750.0, 124992.5, 127235.0, 129480.0, 131722.5, 133965.0, 136207.5, 138450.0, 140695.0, 142937.5, 145180.0, 147422.5, 149665.0, 151910.0, 154152.5, 156395.0, 158637.5, 160880.0, 163125.0, 165367.5, 167610.0, 169852.5, 172095.0, 174340.0, 176582.5, 178825.0, 181067.5, 183310.0, 185555.0, 187797.5, 190040.0, 192282.5, 194525.0, 196770.0, 199012.5, 201255.0, 203497.5, 205740.0, 207985.0, 210227.5, 212470.0, 214712.5, 216955.0, 219200.0, 221442.5, 223685.0, 225927.5, 228170.0, 230415.0, 232657.5, 234900.0, 237142.5, 239385.0, 241630.0, 243872.5, 246115.0, 248357.5, 250600.0],
      "WindowCenter": [6989.0, 7023.0, 3549.0, 2261.0, 3473.0, 3482.0, 5332.0, 2245.0, 2283.0, 2269.0, 3553.0, 5312.0, 2256.0, 2263.0, 2277.0, 2260.0, 3484.0, 2272.0, 2315.0, 2318.0, 2238.0, 6929.0, 3539.0, 2286.0, 3563.0, 3471.0, 2291.0, 2270.0, 2269.0, 2227.0, 5303.0, 2266.0, 3512.0, 2240.0, 2245.0, 5309.0, 2313.0, 2211.0, 3495.0, 2279.0, 2281.0, 6867.0, 2305.0, 2273.0, 2279.0, 5278.0, 3515.0, 2255.0, 2287.0, 3512.0, 2272.0, 3502.0, 3521.0, 2344.0, 5278.0, 3496.0, 2268.0, 3532.0, 2286.0, 2324.0, 3523.0, 6909.0, 3475.0, 2242.0, 2318.0, 2245.0, 2255.0, 5314.0, 3493.0, 3464.0, 2271.0, 2263.0, 2304.0, 2277.0, 3494.0, 2266.0, 2287.0, 2232.0, 3480.0, 3504.0, 2233.0, 6909.0, 3475.0, 2297.0, 2244.0, 3447.0, 3534.0, 2252.0, 3481.0, 2275.0, 2315.0, 2256.0, 3549.0, 2286.0, 2318.0, 2308.0, 5278.0, 3491.0, 2253.0, 3500.0, 3450.0, 6911.0, 2269.0, 2241.0, 3494.0, 2243.0, 2299.0],
      "WindowWidth": [14988.0, 15030.0, 8083.0, 5509.0, 7937.0, 7940.0, 11565.0, 5461.0, 5555.0, 5514.0, 8080.0, 11534.0, 5474.0, 5493.0, 5539.0, 5503.0, 7953.0, 5525.0, 5605.0, 5625.0, 5440.0, 14833.0, 8061.0, 5541.0, 8104.0, 7928.0, 5572.0, 5507.0, 5503.0, 5423.0, 11504.0, 5511.0, 8006.0, 5460.0, 5472.0, 11520.0, 5597.0, 5397.0, 7976.0, 5544.0, 5532.0, 14730.0, 5587.0, 5526.0, 5526.0, 11460.0, 8017.0, 5481.0, 5550.0, 8009.0, 5522.0, 7989.0, 8019.0, 5664.0, 11461.0, 7974.0, 5518.0, 8043.0, 5542.0, 5627.0, 8028.0, 14802.0, 7949.0, 5456.0, 5620.0, 5472.0, 5482.0, 11531.0, 7970.0, 7917.0, 5525.0, 5504.0, 5582.0, 5541.0, 7975.0, 5525.0, 5550.0, 5443.0, 7946.0, 8000.0, 5446.0, 14796.0, 7929.0, 5564.0, 5470.0, 7883.0, 8063.0, 5464.0, 7952.0, 5527.0, 5604.0, 5484.0, 8064.0, 5551.0, 5617.0, 5591.0, 11459.0, 7971.0, 5485.0, 7990.0, 7884.0, 14802.0, 5508.0, 5457.0, 7963.0, 5466.0, 5567.0]
    },
    "slices": {}
  }
}