{
  "AcquisitionMatrixPE": 110,
  "AcquisitionNumber": 1,
  "AcquisitionTime": "18:00:37.460000",
  "BandwidthPerPixelPhaseEncode": 12.987,
  "BaseResolution": 110,
  "BodyPartExamined": "BRAIN",
  "CoilCombinationMethod": "Sum of Squares",
  "ConsistencyInfo": "N4_VE11C_LATEST_20160120",
  "ConversionSoftware": "dcm2niix",
  "ConversionSoftwareVersion": "v1.0.20211006",
  "DerivedVendorReportedEchoSpacing": 0.000700001,
  "DeviceSerialNumber": "167006",
  "DiffusionScheme": "Monopolar",
  "DwellTime": 2.7e-06,
  "EchoTime": 0.0768,
  "EchoTrainLength": 83,
  "EffectiveEchoSpacing": 0.000700001,
  "FlipAngle": 78,
  "HeudiconvVersion": "0.5.3.post569+g418601f",
  "ImageComments": "Unaliased MB3/PE3/LB SENSE1+",
  "ImageOrientationPatientDICOM": [0.999273, 0.00445138, 0.0378649, 6.95088e-09, 0.993161, -0.116756],
  "ImageOrientationText": "Tra>Cor(-6.7)>Sag(2.2)",
  "ImageType": [
    "ORIGINAL",
    "PRIMARY",
    "DIFFUSION",
    "NONE",
    "MB",
    "ND",
    "MOSAIC"
],
  "ImagingFrequency": 123.259,
  "InPlanePhaseEncodingDirectionDICOM": "COL",
  "InstitutionAddress": "Chemin Queen-Mary 4565,Montreal,District,CA,H3W 1W5",
  "InstitutionName": "IUGM",
  "InstitutionalDepartmentName": "Department",
  "MRAcquisitionType": "2D",
  "MagneticFieldStrength": 3,
  "Manufacturer": "Siemens",
  "ManufacturersModelName": "Prisma_fit",
  "MatrixCoilMode": "SENSE",
  "Modality": "MR",
  "MultibandAccelerationFactor": 3,
  "PartialFourier": 0.75,
  "PatientPosition": "HFS",
  "PercentPhaseFOV": 100,
  "PercentSampling": 100,
  "PhaseEncodingDirection": "j",
  "PhaseEncodingSteps": 83,
  "PhaseResolution": 1,
  "PixelBandwidth": 1685,
  "ProcedureStepDescription": "anat^generic",
  "ProtocolName": "dMRI_dir106_PA_test_cmrr",
  "PulseSequenceDetails": "%CustomerSeq%\\cmrr_mbep2d_diff",
  "ReceiveCoilActiveElements": "HC1-6",
  "ReceiveCoilName": "HeadNeck_64",
  "ReconMatrixPE": 110,
  "RepetitionTime": 2.243,
  "SAR": 0.11821,
  "ScanOptions": "PFP\\EXT",
  "ScanningSequence": "EP",
  "SequenceName": "ep_b0",
  "SequenceVariant": "SK\\SS",
  "SeriesDescription": "dMRI_dir106_PA_test_cmrr",
  "SeriesNumber": 13,
  "ShimSetting": [636, -7224, -8775, 669, 48, 19, 65, 12],
  "SliceThickness": 2,
  "SliceTiming": [0, 1.17, 0.115, 1.285, 0.2325, 1.4025, 0.35, 1.52, 0.4675, 1.6375, 0.585, 1.755, 0.7, 1.87, 0.8175, 1.9875, 0.935, 2.105, 1.0525, 0, 1.17, 0.115, 1.285, 0.2325, 1.4025, 0.35, 1.52, 0.4675, 1.6375, 0.585, 1.755, 0.7, 1.87, 0.8175, 1.9875, 0.935, 2.105, 1.0525, 0, 1.17, 0.115, 1.285, 0.2325, 1.4025, 0.35, 1.52, 0.4675, 1.6375, 0.585, 1.755, 0.7, 1.87, 0.8175, 1.9875, 0.935, 2.105, 1.0525],
  "SoftwareVersions": "syngo MR E11",
  "SpacingBetweenSlices": 2,
  "StationName": "MRC35049",
  "TotalReadoutTime": 0.0763001,
  "TxRefAmp": 207.954,
  "WipMemBlock": "214c9ea4-dc66-4b6f-86eb-391a37a1151c||Sequence: R017 ve11c/master r/75a17815+; Jun 28 2022 16:41:33 by eja",
  "dcmmeta_affine": [
    [-1.9985458850860596, 1.3901756190648484e-08, 0.07625129073858261, 107.90038299560547],
    [-0.00890275277197361, 1.9863213300704956, -0.23334147036075592, -90.19544219970703],
    [0.07572977989912033, 0.23351123929023743, 1.9848772287368774, -32.92301559448242],
    [0.0, 0.0, 0.0, 1.0]
],
  "dcmmeta_reorient_transform": [
    [0.0, -1.0, 0.0, 109.0],
    [1.0, 0.0, 0.0, 0.0],
    [0.0, 0.0, 1.0, 0.0],
    [0.0, 0.0, 0.0, 1.0]
],
  "dcmmeta_shape": [110, 110, 57, 107],
  "dcmmeta_slice_dim": 2,
  "dcmmeta_version": 0.6,
  "global": {
    "const": {
      "AcquisitionMatrix": [110, 0, 0, 110],
      "AngioFlag": "N",
      "BitsAllocated": 16,
      "BitsStored": 16,
      "BodyPartExamined": "BRAIN",
      "CardiacNumberOfImages": 1,
      "Columns": 880,
      "EchoNumbers": 1,
      "EchoTime": 76.8,
      "EchoTrainLength": 83,
      "FlipAngle": 78.0,
      "HighBit": 15,
      "ImageOrientationPatient": [0.99927295333014, 0.00445137644111, 0.03786489126679, 6.950878e-09, 0.99316067405043, -0.1167556230753],
      "ImagePositionPatient": [-877.3405660321, -894.47486404559, 53.275574338157],
      "ImageType": [
        "ORIGINAL",
        "PRIMARY",
        "DIFFUSION",
        "NONE",
        "MB",
        "ND",
        "MOSAIC"
],
      "ImagedNucleus": "1H",
      "ImagingFrequency": 123.258805,
      "InPlanePhaseEncodingDirection": "COL",
      "MRAcquisitionType": "2D",
      "MagneticFieldStrength": 3.0,
      "Manufacturer": "SIEMENS",
      "ManufacturerModelName": "Prisma_fit",
      "Modality": "MR",
      "NominalInterval": 0,
      "NumberOfAverages": 1.0,
      "NumberOfPhaseEncodingSteps": 83,
      "PercentPhaseFieldOfView": 100.0,
      "PercentSampling": 100.0,
      "PerformedProcedureStepStartTime": "174008.912000",
      "PhotometricInterpretation": "MONOCHROME2",
      "PixelBandwidth": 1685.0,
      "PixelRepresentation": 0,
      "PixelSpacing": [2.0, 2.0],
      "ProtocolName": "dMRI_dir106_PA_test_cmrr",
      "RepetitionTime": 2243.0,
      "Rows": 880,
      "SAR": 0.11820984736833,
      "SamplesPerPixel": 1,
      "ScanOptions": [
        "PFP",
        "EXT"
],
      "ScanningSequence": "EP",
      "SequenceVariant": [
        "SK",
        "SS"
],
      "SeriesDescription": "dMRI_dir106_PA_test_cmrr",
      "SeriesNumber": 13,
      "SeriesTime": "180139.833000",
      "SliceLocation": -18.037130581637,
      "SliceThickness": 2.0,
      "SmallestImagePixelValue": 0,
      "SoftwareVersions": "syngo MR E11",
      "SpacingBetweenSlices": 1.9999999770829,
      "SpecificCharacterSet": "ISO_IR 100",
      "StudyID": "1",
      "StudyTime": "174008.845000",
      "TransmitCoilName": "Body",
      "VariableFlipAngleFlag": "N",
      "WindowCenterWidthExplanation": "Algo1",
      "dBdt": 0.0},
    "slices": {}
  },
  "time": {
    "samples": {
      "AcquisitionNumber": [1, 2, 3, 4, 5, 6, 7, 8, 9, 10, 11, 12, 13, 14, 15, 16, 17, 18, 19, 20, 21, 22, 23, 24, 25, 26, 27, 28, 29, 30, 31, 32, 33, 34, 35, 36, 37, 38, 39, 40, 41, 42, 43, 44, 45, 46, 47, 48, 49, 50, 51, 52, 53, 54, 55, 56, 57, 58, 59, 60, 61, 62, 63, 64, 65, 66, 67, 68, 69, 70, 71, 72, 73, 74, 75, 76, 77, 78, 79, 80, 81, 82, 83, 84, 85, 86, 87, 88, 89, 90, 91, 92, 93, 94, 95, 96, 97, 98, 99, 100, 101, 102, 103, 104, 105, 106, 107],
      "AcquisitionTime": ["180037.460000", "180039.702500", "180041.945000", "180044.187500", "180046.430000", "180048.675000", "180050.917500", "180053.160000", "180055.402500", "180057.645000", "180059.890000", "180102.132500", "180104.375000", "180106.617500", "180108.860000", "180111.105000", "180113.347500", "180115.590000", "180117.832500", "180120.075000", "180122.320000", "180124.562500", "180126.805000", "180129.047500", "180131.290000", "180133.535000", "180135.777500", "180138.020000", "180140.262500", "180142.505000", "180144.750000", "180146.992500", "180149.235000", "180151.477500", "180153.720000", "180155.965000", "180158.207500", "180200.450000", "180202.692500", "180204.935000", "180207.180000", "180209.422500", "180211.665000", "180213.907500", "180216.150000", "180218.395000", "180220.637500", "180222.880000", "180225.122500", "180227.365000", "180229.610000", "180231.852500", "180234.095000", "180236.337500", "180238.580000", "180240.825000", "180243.067500", "180245.310000", "180247.552500", "180249.795000", "180252.040000", "180254.282500", "180256.525000", "180258.767500", "180301.010000", "180303.255000", "180305.497500", "180307.740000", "180309.982500", "180312.225000", "180314.470000", "180316.712500", "180318.955000", "180321.197500", "180323.440000", "180325.685000", "180327.927500", "180330.170000", "180332.412500", "180334.655000", "180336.900000", "180339.142500", "180341.385000", "180343.627500", "180345.870000", "180348.115000", "180350.357500", "180352.600000", "180354.842500", "180357.085000", "180359.330000", "180401.572500", "180403.815000", "180406.057500", "180408.300000", "180410.545000", "180412.787500", "180415.030000", "180417.272500", "180419.515000", "180421.760000", "180424.002500", "180426.245000", "180428.487500", "180430.730000", "180432.975000", "180435.217500"],
      "ContentTime": ["180139.837000", "180139.840000", "180139.849000", "180139.853000", "180139.856000", "180139.859000", "180139.862000", "180139.865000", "180139.868000", "180139.872000", "180139.875000", "180139.878000", "180139.881000", "180139.885000", "180139.888000", "180139.891000", "180139.894000", "180139.897000", "180139.900000", "180139.910000", "180139.914000", "180139.917000", "180139.920000", "180139.923000", "180139.926000", "180139.952000", "180139.955000", "180239.801000", "180239.804000", "180239.808000", "180239.811000", "180239.814000", "180239.817000", "180239.820000", "180239.823000", "180239.826000", "180239.830000", "180239.833000", "180239.836000", "180239.839000", "180239.842000", "180239.845000", "180239.848000", "180239.852000", "180239.855000", "180239.858000", "180239.861000", "180239.864000", "180239.867000", "180239.870000", "180239.873000", "180239.877000", "180239.880000", "180239.884000", "180339.801000", "180339.804000", "180339.807000", "180339.811000", "180339.814000", "180339.817000", "180339.820000", "180339.823000", "180339.826000", "180339.829000", "180339.833000", "180339.836000", "180339.839000", "180339.842000", "180339.845000", "180339.848000", "180339.851000", "180339.855000", "180339.858000", "180339.861000", "180339.864000", "180339.867000", "180339.870000", "180339.873000", "180339.877000", "180339.880000", "180339.883000", "180439.525000", "180439.528000", "180439.531000", "180439.534000", "180439.538000", "180439.541000", "180439.544000", "180439.547000", "180439.550000", "180439.553000", "180439.557000", "180439.560000", "180439.563000", "180439.566000", "180439.569000", "180439.573000", "180439.576000", "180439.579000", "180439.582000", "180439.585000", "180439.588000", "180439.591000", "180439.595000", "180439.599000", "180439.602000", "180439.606000"],
      "InstanceCreationTime": ["180139.837000", "180139.840000", "180139.849000", "180139.853000", "180139.856000", "180139.859000", "180139.862000", "180139.865000", "180139.868000", "180139.872000", "180139.875000", "180139.878000", "180139.881000", "180139.885000", "180139.888000", "180139.891000", "180139.894000", "180139.897000", "180139.900000", "180139.910000", "180139.914000", "180139.917000", "180139.920000", "180139.923000", "180139.926000", "180139.952000", "180139.955000", "180239.801000", "180239.804000", "180239.808000", "180239.811000", "180239.814000", "180239.817000", "180239.820000", "180239.823000", "180239.826000", "180239.830000", "180239.833000", "180239.836000", "180239.839000", "180239.842000", "180239.845000", "180239.848000", "180239.852000", "180239.855000", "180239.858000", "180239.861000", "180239.864000", "180239.867000", "180239.870000", "180239.873000", "180239.877000", "180239.880000", "180239.884000", "180339.801000", "180339.804000", "180339.807000", "180339.811000", "180339.814000", "180339.817000", "180339.820000", "180339.823000", "180339.826000", "180339.829000", "180339.833000", "180339.836000", "180339.839000", "180339.842000", "180339.845000", "180339.848000", "180339.851000", "180339.855000", "180339.858000", "180339.861000", "180339.864000", "180339.867000", "180339.870000", "180339.873000", "180339.877000", "180339.880000", "180339.883000", "180439.525000", "180439.528000", "180439.531000", "180439.534000", "180439.538000", "180439.541000", "180439.544000", "180439.547000", "180439.550000", "180439.553000", "180439.557000", "180439.560000", "180439.563000", "180439.566000", "180439.569000", "180439.573000", "180439.576000", "180439.579000", "180439.582000", "180439.585000", "180439.588000", "180439.591000", "180439.595000", "180439.599000", "180439.602000", "180439.606000"],
      "InstanceNumber": [1, 2, 3, 4, 5, 6, 7, 8, 9, 10, 11, 12, 13, 14, 15, 16, 17, 18, 19, 20, 21, 22, 23, 24, 25, 26, 27, 28, 29, 30, 31, 32, 33, 34, 35, 36, 37, 38, 39, 40, 41, 42, 43, 44, 45, 46, 47, 48, 49, 50, 51, 52, 53, 54, 55, 56, 57, 58, 59, 60, 61, 62, 63, 64, 65, 66, 67, 68, 69, 70, 71, 72, 73, 74, 75, 76, 77, 78, 79, 80, 81, 82, 83, 84, 85, 86, 87, 88, 89, 90, 91, 92, 93, 94, 95, 96, 97, 98, 99, 100, 101, 102, 103, 104, 105, 106, 107],
      "LargestImagePixelValue": [48314, 48934, 20440, 11763, 21355, 21052, 34395, 11744, 10921, 11934, 22006, 36355, 12197, 11344, 12754, 11422, 20234, 10436, 11409, 10419, 11763, 48692, 21623, 11406, 21532, 22107, 11053, 11052, 12068, 11742, 34665, 10348, 21406, 10683, 10817, 37123, 12534, 11295, 21171, 12399, 10331, 51230, 12252, 10950, 12708, 37564, 20646, 10737, 11210, 20568, 11719, 23051, 20177, 12019, 37014, 20014, 10383, 21227, 12086, 10274, 19207, 50289, 20422, 10536, 11211, 10174, 11118, 37580, 20473, 21491, 9979, 11555, 12231, 11455, 20792, 10504, 12398, 11379, 20930, 20647, 11224, 51228, 22772, 12340, 10213, 21825, 20365, 11525, 20578, 11171, 12329, 10492, 21975, 11211, 10586, 11996, 37409, 20637, 11141, 22427, 21322, 48674, 9812, 11164, 22278, 10652, 11629],
      "SequenceName": [
 "ep_b0",
 "ep_b0",
 "ep_b1000#2",
 "ep_b2000#3",
 "ep_b1000#4",
 "ep_b1000#5",
 "ep_b300#6",
 "ep_b2000#7",
 "ep_b2000#8",
 "ep_b2000#9",
 "ep_b1000#10",
 "ep_b300#11",
 "ep_b2000#12",
 "ep_b2000#13",
 "ep_b2000#14",
 "ep_b2000#15",
 "ep_b1000#16",
 "ep_b2000#17",
 "ep_b2000#18",
 "ep_b2000#19",
 "ep_b2000#20",
 "ep_b0",
 "ep_b1000#22",
 "ep_b2000#23",
 "ep_b1000#24",
 "ep_b1000#25",
 "ep_b2000#26",
 "ep_b2000#27",
 "ep_b2000#28",
 "ep_b2000#29",
 "ep_b300#30",
 "ep_b2000#31",
 "ep_b1000#32",
 "ep_b2000#33",
 "ep_b2000#34",
 "ep_b300#35",
 "ep_b2000#36",
 "ep_b2000#37",
 "ep_b1000#38",
 "ep_b2000#39",
 "ep_b2000#40",
 "ep_b0",
 "ep_b2000#42",
 "ep_b2000#43",
 "ep_b2000#44",
 "ep_b300#45",
 "ep_b1000#46",
 "ep_b2000#47",
 "ep_b2000#48",
 "ep_b1000#49",
 "ep_b2000#50",
 "ep_b1000#51",
 "ep_b1000#52",
 "ep_b2000#53",
 "ep_b300#54",
 "ep_b1000#55",
 "ep_b2000#56",
 "ep_b1000#57",
 "ep_b2000#58",
 "ep_b2000#59",
 "ep_b1000#60",
 "ep_b0",
 "ep_b1000#62",
 "ep_b2000#63",
 "ep_b2000#64",
 "ep_b2000#65",
 "ep_b2000#66",
 "ep_b300#67",
 "ep_b1000#68",
 "ep_b1000#69",
 "ep_b2000#70",
 "ep_b2000#71",
 "ep_b2000#72",
 "ep_b2000#73",
 "ep_b1000#74",
 "ep_b2000#75",
 "ep_b2000#76",
 "ep_b2000#77",
 "ep_b1000#78",
 "ep_b1000#79",
 "ep_b2000#80",
 "ep_b0",
 "ep_b1000#82",
 "ep_b2000#83",
 "ep_b2000#84",
 "ep_b1000#85",
 "ep_b1000#86",
 "ep_b2000#87",
 "ep_b1000#88",
 "ep_b2000#89",
 "ep_b2000#90",
 "ep_b2000#91",
 "ep_b1000#92",
 "ep_b2000#93",
 "ep_b2000#94",
 "ep_b2000#95",
 "ep_b300#96",
 "ep_b1000#97",
 "ep_b2000#98",
 "ep_b1000#99",
 "ep_b1000#100",
 "ep_b0",
 "ep_b2000#102",
 "ep_b2000#103",
 "ep_b1000#104",
 "ep_b2000#105",
 "ep_b2000#106"
],
      "TriggerTime": [12835.0, 15080.0, 17322.5, 19565.0, 21807.5, 24050.0, 26295.0, 28537.5, 30780.0, 33022.5, 35265.0, 37510.0, 39752.5, 41995.0, 44237.5, 46480.0, 48725.0, 50967.5, 53210.0, 55452.5, 57695.0, 59940.0, 62182.5, 64425.0, 66667.5, 68910.0, 71155.0, 73397.5, 75640.0, 77882.5, 80125.0, 82370.0, 84612.5, 86855.0, 89097.5, 91340.0, 93585.0, 95827.5, 98070.0, 100312.5, 102555.0, 104800.0, 107042.5, 109285.0, 111527.5, 113770.0, 116015.0, 118257.5, 120500.0, 122742.5, 124985.0, 127230.0, 129472.5, 131715.0, 133957.5, 136200.0, 138445.0, 140687.5, 142930.0, 145172.5, 147415.0, 149660.0, 151902.5, 154145.0, 156387.5, 158630.0, 160875.0, 163117.5, 165360.0, 167602.5, 169845.0, 172090.0, 174332.5, 176575.0, 178817.5, 181060.0, 183305.0, 185547.5, 187790.0, 190032.5, 192275.0, 194520.0, 196762.5, 199005.0, 201247.5, 203490.0, 205735.0, 207977.5, 210220.0, 212462.5, 214705.0, 216950.0, 219192.5, 221435.0, 223677.5, 225920.0, 228165.0, 230407.5, 232650.0, 234892.5, 237135.0, 239380.0, 241622.5, 243865.0, 246107.5, 248350.0, 250595.0],
      "WindowCenter": [7131.0, 7105.0, 3613.0, 2354.0, 3612.0, 3590.0, 5410.0, 2355.0, 2337.0, 2371.0, 3604.0, 5400.0, 2317.0, 2288.0, 2405.0, 2362.0, 3588.0, 2315.0, 2373.0, 2338.0, 2316.0, 7039.0, 3603.0, 2368.0, 3622.0, 3613.0, 2338.0, 2359.0, 2309.0, 2320.0, 5353.0, 2301.0, 3577.0, 2343.0, 2324.0, 5409.0, 2370.0, 2326.0, 3549.0, 2395.0, 2305.0, 7143.0, 2397.0, 2332.0, 2363.0, 5375.0, 3596.0, 2287.0, 2380.0, 3540.0, 2358.0, 3597.0, 3586.0, 2385.0, 5389.0, 3561.0, 2299.0, 3584.0, 2311.0, 2365.0, 3595.0, 7135.0, 3612.0, 2306.0, 2350.0, 2310.0, 2323.0, 5448.0, 3562.0, 3613.0, 2333.0, 2393.0, 2391.0, 2348.0, 3542.0, 2343.0, 2381.0, 2348.0, 3546.0, 3589.0, 2335.0, 7092.0, 3588.0, 2351.0, 2302.0, 3613.0, 3592.0, 2320.0, 3532.0, 2341.0, 2382.0, 2311.0, 3586.0, 2328.0, 2363.0, 2387.0, 5437.0, 3605.0, 2337.0, 3626.0, 3591.0, 7050.0, 2296.0, 2318.0, 3617.0, 2295.0, 2385.0],
      "WindowWidth": [15307.0, 15251.0, 8274.0, 5731.0, 8274.0, 8238.0, 11814.0, 5734.0, 5692.0, 5754.0, 8268.0, 11790.0, 5648.0, 5580.0, 5829.0, 5745.0, 8228.0, 5659.0, 5776.0, 5698.0, 5648.0, 15107.0, 8260.0, 5760.0, 8299.0, 8265.0, 5693.0, 5723.0, 5635.0, 5653.0, 11708.0, 5606.0, 8220.0, 5712.0, 5672.0, 11809.0, 5767.0, 5678.0, 8143.0, 5812.0, 5615.0, 15311.0, 5816.0, 5666.0, 5743.0, 11728.0, 8260.0, 5577.0, 5772.0, 8142.0, 5731.0, 8248.0, 8229.0, 5791.0, 11762.0, 8181.0, 5622.0, 8228.0, 5641.0, 5740.0, 8225.0, 15295.0, 8272.0, 5635.0, 5721.0, 5647.0, 5666.0, 11881.0, 8170.0, 8271.0, 5675.0, 5809.0, 5809.0, 5718.0, 8149.0, 5713.0, 5787.0, 5711.0, 8144.0, 8222.0, 5693.0, 15198.0, 8230.0, 5722.0, 5621.0, 8279.0, 8228.0, 5655.0, 8125.0, 5705.0, 5789.0, 5639.0, 8240.0, 5682.0, 5734.0, 5789.0, 11858.0, 8271.0, 5685.0, 8298.0, 8232.0, 15113.0, 5602.0, 5652.0, 8275.0, 5599.0, 5796.0]
    },
    "slices": {}
  }
}