{
  "AcquisitionMatrixPE": 110,
  "AcquisitionNumber": 1,
  "AcquisitionTime": "15:16:53.532500",
  "BandwidthPerPixelPhaseEncode": 12.987,
  "BaseResolution": 110,
  "BodyPartExamined": "BRAIN",
  "ConsistencyInfo": "N4_VE11C_LATEST_20160120",
  "ConversionSoftware": "dcm2niix",
  "ConversionSoftwareVersion": "v1.0.20190902",
  "DerivedVendorReportedEchoSpacing": 0.000700001,
  "DeviceSerialNumber": "167006",
  "DiffusionScheme": "Monopolar",
  "DwellTime": 2.7e-06,
  "EchoTime": 0.0816,
  "EchoTrainLength": 83,
  "EffectiveEchoSpacing": 0.000700001,
  "FlipAngle": 78,
  "ImageComments": "Unaliased_MB3_PE3_LB_SENSE1",
  "ImageOrientationPatientDICOM": [1, 0, 0, 0, 0.942057, -0.335452],
  "ImageType": [
    "ORIGINAL",
    "PRIMARY",
    "DIFFUSION",
    "NONE",
    "MB",
    "ND",
    "MOSAIC"
],
  "ImagingFrequency": 123.259,
  "InPlanePhaseEncodingDirectionDICOM": "COL",
  "InstitutionAddress": "Chemin_Queen-Mary_4565_Montreal_District_CA_H3W_1W5",
  "InstitutionName": "IUGM",
  "InstitutionalDepartmentName": "Department",
  "MRAcquisitionType": "2D",
  "MagneticFieldStrength": 3,
  "Manufacturer": "Siemens",
  "ManufacturersModelName": "Prisma_fit",
  "Modality": "MR",
  "MultibandAccelerationFactor": 3,
  "PartialFourier": 0.75,
  "PatientPosition": "HFS",
  "PercentPhaseFOV": 100,
  "PhaseEncodingDirection": "j-",
  "PhaseEncodingSteps": 83,
  "PhaseResolution": 1,
  "PixelBandwidth": 1685,
  "ProcedureStepDescription": "neuromod_generic",
  "ProtocolName": "dMRI_dir98_AP_test_cmrr",
  "PulseSequenceDetails": "%CustomerSeq%_cmrr_mbep2d_diff",
  "ReceiveCoilActiveElements": "HC1-6",
  "ReceiveCoilName": "HeadNeck_64",
  "ReconMatrixPE": 110,
  "RepetitionTime": 3.23,
  "SAR": 0.0821963,
  "ScanOptions": "PFP_EXT",
  "ScanningSequence": "EP",
  "SequenceName": "ep_b5#1",
  "SequenceVariant": "SK_SS",
  "SeriesDescription": "dMRI_dir98_AP_test_cmrr",
  "SeriesNumber": 22,
  "ShimSetting": [622, -7202, -8827, 577, 13, 19, 62, -14],
  "SliceThickness": 2,
  "SliceTiming": [0, 1.69, 0.17, 1.86, 0.3375, 2.0275, 0.5075, 2.1975, 0.6775, 2.365, 0.845, 2.535, 1.015, 2.7025, 1.1825, 2.8725, 1.3525, 3.0425, 1.52, 0, 1.69, 0.17, 1.86, 0.3375, 2.0275, 0.5075, 2.1975, 0.6775, 2.365, 0.845, 2.535, 1.015, 2.7025, 1.1825, 2.8725, 1.3525, 3.0425, 1.52, 0, 1.69, 0.17, 1.86, 0.3375, 2.0275, 0.5075, 2.1975, 0.6775, 2.365, 0.845, 2.535, 1.015, 2.7025, 1.1825, 2.8725, 1.3525, 3.0425, 1.52],
  "SoftwareVersions": "syngo_MR_E11",
  "SpacingBetweenSlices": 2,
  "StationName": "MRC35049",
  "TotalReadoutTime": 0.0763001,
  "TxRefAmp": 208.48,
  "WipMemBlock": "4911e441-e804-4a2b-8021-86b1f2df458a||Sequence: R016 ve11c/master r/e634e98; Dec 19 2017 11:11:25 by eja",
  "dcmmeta_affine": [
    [-2.0, 0.0, 0.0, 111.8072280883789],
    [0.0, 1.8841148614883423, -0.6709031462669373, -76.4405517578125],
    [0.0, 0.6709031462669373, 1.8841148614883423, -66.93142700195312],
    [0.0, 0.0, 0.0, 1.0]
],
  "dcmmeta_reorient_transform": [
    [0.0, -1.0, 0.0, 109.0],
    [1.0, 0.0, 0.0, 0.0],
    [0.0, 0.0, 1.0, 0.0],
    [0.0, 0.0, 0.0, 1.0]
],
  "dcmmeta_shape": [110, 110, 57, 99],
  "dcmmeta_slice_dim": 2,
  "dcmmeta_version": 0.6,
  "global": {
    "const": {
      "AcquisitionMatrix": [110, 0, 0, 110],
      "AngioFlag": "N",
      "BitsAllocated": 16,
      "BitsStored": 16,
      "BodyPartExamined": "BRAIN",
      "CardiacNumberOfImages": 1,
      "Columns": 880,
      "EchoNumbers": 1,
      "EchoTime": 81.6,
      "EchoTrainLength": 83,
      "FlipAngle": 78.0,
      "HighBit": 15,
      "ImageOrientationPatient": [1.0, 0.0, 0.0, 0.0, 0.94205745265343, -0.3354515701262],
      "ImagePositionPatient": [-881.80722892284, -854.31221124334, 264.49472591883],
      "ImageType": [
        "ORIGINAL",
        "PRIMARY",
        "DIFFUSION",
        "NONE",
        "MB",
        "ND",
        "MOSAIC"
],
      "ImagedNucleus": "1H",
      "ImagingFrequency": 123.259138,
      "InPlanePhaseEncodingDirection": "COL",
      "MRAcquisitionType": "2D",
      "MagneticFieldStrength": 3.0,
      "Manufacturer": "SIEMENS",
      "ManufacturerModelName": "Prisma_fit",
      "Modality": "MR",
      "NominalInterval": 0,
      "NumberOfAverages": 1.0,
      "NumberOfPhaseEncodingSteps": 83,
      "PercentPhaseFieldOfView": 100.0,
      "PercentSampling": 100.0,
      "PerformedProcedureStepStartTime": "142411.891000",
      "PhotometricInterpretation": "MONOCHROME2",
      "PixelBandwidth": 1685.0,
      "PixelRepresentation": 0,
      "PixelSpacing": [2.0, 2.0],
      "ProtocolName": "dMRI_dir98_AP_test_cmrr",
      "RepetitionTime": 3230.0,
      "Rows": 880,
      "SAR": 0.08219625297828,
      "SamplesPerPixel": 1,
      "ScanOptions": [
        "PFP",
        "EXT"
],
      "ScanningSequence": "EP",
      "SequenceVariant": [
        "SK",
        "SS"
],
      "SeriesDescription": "dMRI_dir98_AP_test_cmrr",
      "SeriesNumber": 22,
      "SeriesTime": "151813.924000",
      "SliceLocation": -37.411144900215,
      "SliceThickness": 2.0,
      "SmallestImagePixelValue": 0,
      "SoftwareVersions": "syngo MR E11",
      "SpacingBetweenSlices": 1.9999999796375,
      "SpecificCharacterSet": "ISO_IR 100",
      "StudyID": "1",
      "StudyTime": "142411.830000",
      "TransmitCoilName": "Body",
      "VariableFlipAngleFlag": "N",
      "WindowCenterWidthExplanation": "Algo1",
      "dBdt": 0.0},
    "slices": {}
  },
  "time": {
    "samples": {
      "AcquisitionNumber": [1, 2, 3, 4, 5, 6, 7, 8, 9, 10, 11, 12, 13, 14, 15, 16, 17, 18, 19, 20, 21, 22, 23, 24, 25, 26, 27, 28, 29, 30, 31, 32, 33, 34, 35, 36, 37, 38, 39, 40, 41, 42, 43, 44, 45, 46, 47, 48, 49, 50, 51, 52, 53, 54, 55, 56, 57, 58, 59, 60, 61, 62, 63, 64, 65, 66, 67, 68, 69, 70, 71, 72, 73, 74, 75, 76, 77, 78, 79, 80, 81, 82, 83, 84, 85, 86, 87, 88, 89, 90, 91, 92, 93, 94, 95, 96, 97, 98, 99],
      "AcquisitionTime": ["151653.532500", "151656.762500", "151659.992500", "151703.222500", "151706.452500", "151709.682500", "151712.912500", "151716.142500", "151719.372500", "151722.602500", "151725.832500", "151729.062500", "151732.292500", "151735.522500", "151738.752500", "151741.982500", "151745.212500", "151748.442500", "151751.672500", "151754.902500", "151758.132500", "151801.362500", "151804.592500", "151807.822500", "151811.052500", "151814.282500", "151817.512500", "151820.742500", "151823.972500", "151827.202500", "151830.432500", "151833.662500", "151836.892500", "151840.122500", "151843.352500", "151846.582500", "151849.812500", "151853.042500", "151856.272500", "151859.502500", "151902.732500", "151905.962500", "151909.192500", "151912.422500", "151915.652500", "151918.882500", "151922.112500", "151925.342500", "151928.572500", "151931.802500", "151935.032500", "151938.262500", "151941.492500", "151944.722500", "151947.952500", "151951.182500", "151954.412500", "151957.642500", "152000.872500", "152004.102500", "152007.332500", "152010.562500", "152013.792500", "152017.022500", "152020.252500", "152023.482500", "152026.712500", "152029.942500", "152033.172500", "152036.402500", "152039.632500", "152042.862500", "152046.092500", "152049.322500", "152052.552500", "152055.782500", "152059.012500", "152102.242500", "152105.472500", "152108.702500", "152111.932500", "152115.162500", "152118.392500", "152121.622500", "152124.852500", "152128.082500", "152131.312500", "152134.542500", "152137.772500", "152141.002500", "152144.232500", "152147.462500", "152150.692500", "152153.922500", "152157.152500", "152200.382500", "152203.612500", "152206.842500", "152210.072500"],
      "ContentTime": ["151813.927000", "151813.930000", "151813.935000", "151813.938000", "151813.941000", "151813.944000", "151813.947000", "151813.950000", "151813.953000", "151813.957000", "151813.960000", "151813.963000", "151813.966000", "151813.969000", "151813.978000", "151813.981000", "151813.984000", "151813.987000", "151813.991000", "151813.994000", "151813.997000", "151814.001000", "151814.004000", "151814.007000", "151933.891000", "151933.895000", "151933.898000", "151933.902000", "151933.905000", "151933.908000", "151933.911000", "151933.914000", "151933.917000", "151933.920000", "151933.923000", "151933.926000", "151933.929000", "151933.933000", "151933.936000", "151933.946000", "151933.949000", "151933.952000", "151933.955000", "151933.958000", "151933.961000", "151933.964000", "151933.967000", "151933.970000", "151933.973000", "152053.891000", "152053.894000", "152053.898000", "152053.901000", "152053.904000", "152053.907000", "152053.910000", "152053.914000", "152053.917000", "152053.920000", "152053.923000", "152053.926000", "152053.929000", "152053.932000", "152053.935000", "152053.938000", "152053.941000", "152053.944000", "152053.947000", "152053.950000", "152053.954000", "152053.957000", "152053.960000", "152053.963000", "152053.966000", "152213.891000", "152213.895000", "152213.898000", "152213.901000", "152213.904000", "152213.907000", "152213.923000", "152213.926000", "152213.929000", "152213.932000", "152213.936000", "152213.939000", "152213.942000", "152213.945000", "152213.948000", "152213.951000", "152213.954000", "152213.957000", "152213.960000", "152213.963000", "152213.967000", "152213.970000", "152213.973000", "152213.976000", "152216.335000"],
      "InstanceCreationTime": ["151813.927000", "151813.930000", "151813.935000", "151813.938000", "151813.941000", "151813.944000", "151813.947000", "151813.950000", "151813.953000", "151813.957000", "151813.960000", "151813.963000", "151813.966000", "151813.969000", "151813.978000", "151813.981000", "151813.984000", "151813.987000", "151813.991000", "151813.994000", "151813.997000", "151814.001000", "151814.004000", "151814.007000", "151933.891000", "151933.895000", "151933.898000", "151933.902000", "151933.905000", "151933.908000", "151933.911000", "151933.914000", "151933.917000", "151933.920000", "151933.923000", "151933.926000", "151933.929000", "151933.933000", "151933.936000", "151933.946000", "151933.949000", "151933.952000", "151933.955000", "151933.958000", "151933.961000", "151933.964000", "151933.967000", "151933.970000", "151933.973000", "152053.891000", "152053.894000", "152053.898000", "152053.901000", "152053.904000", "152053.907000", "152053.910000", "152053.914000", "152053.917000", "152053.920000", "152053.923000", "152053.926000", "152053.929000", "152053.932000", "152053.935000", "152053.938000", "152053.941000", "152053.944000", "152053.947000", "152053.950000", "152053.954000", "152053.957000", "152053.960000", "152053.963000", "152053.966000", "152213.891000", "152213.895000", "152213.898000", "152213.901000", "152213.904000", "152213.907000", "152213.923000", "152213.926000", "152213.929000", "152213.932000", "152213.936000", "152213.939000", "152213.942000", "152213.945000", "152213.948000", "152213.951000", "152213.954000", "152213.957000", "152213.960000", "152213.963000", "152213.967000", "152213.970000", "152213.973000", "152213.976000", "152216.335000"],
      "InstanceNumber": [1, 2, 3, 4, 5, 6, 7, 8, 9, 10, 11, 12, 13, 14, 15, 16, 17, 18, 19, 20, 21, 22, 23, 24, 25, 26, 27, 28, 29, 30, 31, 32, 33, 34, 35, 36, 37, 38, 39, 40, 41, 42, 43, 44, 45, 46, 47, 48, 49, 50, 51, 52, 53, 54, 55, 56, 57, 58, 59, 60, 61, 62, 63, 64, 65, 66, 67, 68, 69, 70, 71, 72, 73, 74, 75, 76, 77, 78, 79, 80, 81, 82, 83, 84, 85, 86, 87, 88, 89, 90, 91, 92, 93, 94, 95, 96, 97, 98, 99],
      "LargestImagePixelValue": [42668, 38788, 11665, 6503, 13998, 6328, 12346, 6116, 12136, 5842, 13227, 6006, 12821, 6027, 11927, 7356, 12967, 43436, 6020, 11842, 6399, 11822, 6863, 11672, 5927, 11998, 6402, 13808, 5935, 11724, 6115, 14017, 6561, 43012, 12861, 6303, 10868, 6302, 11918, 6193, 13434, 6323, 12925, 6433, 11363, 6081, 12525, 5793, 13779, 38562, 6744, 12014, 6215, 12527, 6107, 12127, 6141, 11958, 6161, 13023, 6651, 11789, 5943, 12451, 6208, 44116, 13589, 6198, 11354, 6430, 13995, 7179, 12526, 6012, 13253, 6019, 11597, 6169, 11884, 5959, 11972, 38599, 5922, 13067, 6059, 11454, 6174, 11007, 6327, 12718, 6014, 13125, 6157, 12633, 6625, 13193, 6151, 12036, 6535],
      "SequenceName": [
 "ep_b5#1",
 "ep_b5#1",
 "ep_b1490#2",
 "ep_b2990#3",
 "ep_b1495#4",
 "ep_b3005#5",
 "ep_b1500#6",
 "ep_b2985#7",
 "ep_b1495#8",
 "ep_b3005#9",
 "ep_b1490#10",
 "ep_b2995#11",
 "ep_b1495#12",
 "ep_b2990#13",
 "ep_b1500#14",
 "ep_b2985#15",
 "ep_b1500#16",
 "ep_b5#17",
 "ep_b3005#18",
 "ep_b1490#19",
 "ep_b2995#20",
 "ep_b1495#21",
 "ep_b3000#22",
 "ep_b1495#23",
 "ep_b3000#24",
 "ep_b1490#25",
 "ep_b2985#26",
 "ep_b1505#27",
 "ep_b2990#28",
 "ep_b1495#29",
 "ep_b3000#30",
 "ep_b1490#31",
 "ep_b3000#32",
 "ep_b5#33",
 "ep_b1505#34",
 "ep_b3000#35",
 "ep_b1490#36",
 "ep_b2985#37",
 "ep_b1495#38",
 "ep_b2995#39",
 "ep_b1500#40",
 "ep_b2995#41",
 "ep_b1500#42",
 "ep_b2990#43",
 "ep_b1495#44",
 "ep_b3000#45",
 "ep_b1495#46",
 "ep_b3000#47",
 "ep_b1490#48",
 "ep_b5#49",
 "ep_b3000#50",
 "ep_b1495#51",
 "ep_b2990#52",
 "ep_b1505#53",
 "ep_b2995#54",
 "ep_b1495#55",
 "ep_b2990#56",
 "ep_b1490#57",
 "ep_b2995#58",
 "ep_b1500#59",
 "ep_b3000#60",
 "ep_b1500#61",
 "ep_b2985#62",
 "ep_b1500#63",
 "ep_b2990#64",
 "ep_b5#65",
 "ep_b1505#66",
 "ep_b3005#67",
 "ep_b1495#68",
 "ep_b3000#69",
 "ep_b1505#70",
 "ep_b3005#71",
 "ep_b1500#72",
 "ep_b3005#73",
 "ep_b1495#74",
 "ep_b2995#75",
 "ep_b1495#76",
 "ep_b2995#77",
 "ep_b1500#78",
 "ep_b3000#79",
 "ep_b1490#80",
 "ep_b5#81",
 "ep_b2990#82",
 "ep_b1500#83",
 "ep_b2985#84",
 "ep_b1495#85",
 "ep_b2995#86",
 "ep_b1495#87",
 "ep_b2995#88",
 "ep_b1490#89",
 "ep_b2985#90",
 "ep_b1500#91",
 "ep_b3000#92",
 "ep_b1495#93",
 "ep_b3005#94",
 "ep_b1495#95",
 "ep_b2990#96",
 "ep_b1500#97",
 "ep_b3000#98"
],
      "TriggerTime": [14545.0, 17775.0, 21005.0, 24235.0, 27465.0, 30695.0, 33925.0, 37155.0, 40385.0, 43615.0, 46845.0, 50075.0, 53305.0, 56535.0, 59765.0, 62995.0, 66225.0, 69455.0, 72685.0, 75915.0, 79145.0, 82375.0, 85605.0, 88835.0, 92065.0, 95295.0, 98525.0, 101755.0, 104985.0, 108215.0, 111445.0, 114675.0, 117905.0, 121135.0, 124365.0, 127595.0, 130825.0, 134055.0, 137285.0, 140515.0, 143745.0, 146975.0, 150205.0, 153435.0, 156665.0, 159895.0, 163125.0, 166355.0, 169585.0, 172815.0, 176045.0, 179275.0, 182505.0, 185735.0, 188965.0, 192195.0, 195425.0, 198655.0, 201885.0, 205115.0, 208345.0, 211575.0, 214805.0, 218035.0, 221265.0, 224495.0, 227725.0, 230955.0, 234185.0, 237415.0, 240645.0, 243875.0, 247105.0, 250335.0, 253565.0, 256795.0, 260025.0, 263255.0, 266485.0, 269715.0, 272945.0, 276175.0, 279405.0, 282635.0, 285865.0, 289095.0, 292325.0, 295555.0, 298785.0, 302015.0, 305245.0, 308475.0, 311705.0, 314935.0, 318165.0, 321395.0, 324625.0, 327855.0, 331085.0],
      "WindowCenter": [7832.0, 7823.0, 3110.0, 1853.0, 3190.0, 1874.0, 3159.0, 1820.0, 3086.0, 1815.0, 3119.0, 1876.0, 3186.0, 1837.0, 3122.0, 1873.0, 3103.0, 7794.0, 1846.0, 3124.0, 1876.0, 3159.0, 1865.0, 3086.0, 1861.0, 3119.0, 1827.0, 3159.0, 1838.0, 3146.0, 1821.0, 3160.0, 1872.0, 7800.0, 3132.0, 1813.0, 3072.0, 1840.0, 3147.0, 1897.0, 3164.0, 1832.0, 3103.0, 1874.0, 3087.0, 1839.0, 3116.0, 1839.0, 3157.0, 7789.0, 1856.0, 3175.0, 1833.0, 3108.0, 1850.0, 3118.0, 1887.0, 3145.0, 1827.0, 3123.0, 1815.0, 3106.0, 1815.0, 3200.0, 1880.0, 7803.0, 3140.0, 1862.0, 3125.0, 1884.0, 3145.0, 1862.0, 3153.0, 1811.0, 3118.0, 1830.0, 3108.0, 1890.0, 3144.0, 1829.0, 3130.0, 7774.0, 1858.0, 3081.0, 1823.0, 3160.0, 1818.0, 3069.0, 1873.0, 3105.0, 1841.0, 3119.0, 1861.0, 3201.0, 1856.0, 3129.0, 1837.0, 3105.0, 1870.0],
      "WindowWidth": [16781.0, 16771.0, 7212.0, 4653.0, 7372.0, 4694.0, 7307.0, 4596.0, 7173.0, 4574.0, 7228.0, 4708.0, 7355.0, 4639.0, 7244.0, 4708.0, 7202.0, 16691.0, 4646.0, 7245.0, 4706.0, 7301.0, 4697.0, 7168.0, 4680.0, 7222.0, 4595.0, 7299.0, 4648.0, 7281.0, 4601.0, 7311.0, 4692.0, 16705.0, 7252.0, 4580.0, 7142.0, 4617.0, 7273.0, 4764.0, 7308.0, 4618.0, 7200.0, 4694.0, 7173.0, 4616.0, 7226.0, 4652.0, 7298.0, 16693.0, 4656.0, 7329.0, 4630.0, 7210.0, 4675.0, 7230.0, 4725.0, 7276.0, 4602.0, 7243.0, 4583.0, 7208.0, 4572.0, 7383.0, 4731.0, 16703.0, 7263.0, 4680.0, 7249.0, 4717.0, 7272.0, 4681.0, 7303.0, 4563.0, 7225.0, 4623.0, 7210.0, 4735.0, 7277.0, 4615.0, 7243.0, 16664.0, 4663.0, 7165.0, 4587.0, 7307.0, 4599.0, 7136.0, 4698.0, 7199.0, 4626.0, 7230.0, 4684.0, 7387.0, 4664.0, 7248.0, 4650.0, 7208.0, 4684.0]
    },
    "slices": {}
  }
}