{
  "AcquisitionMatrixPE": 110,
  "AcquisitionNumber": 1,
  "AcquisitionTime": "17:26:36.850000",
  "BandwidthPerPixelPhaseEncode": 12.987,
  "BaseResolution": 110,
  "BodyPartExamined": "BRAIN",
  "CoilCombinationMethod": "Sum of Squares",
  "ConsistencyInfo": "N4_VE11C_LATEST_20160120",
  "ConversionSoftware": "dcm2niix",
  "ConversionSoftwareVersion": "v1.0.20211006",
  "DerivedVendorReportedEchoSpacing": 0.000700001,
  "DeviceSerialNumber": "167006",
  "DiffusionScheme": "Monopolar",
  "DwellTime": 2.7e-06,
  "EchoTime": 0.0816,
  "EchoTrainLength": 83,
  "EffectiveEchoSpacing": 0.000700001,
  "FlipAngle": 78,
  "HeudiconvVersion": "0.5.3.post569+g418601f",
  "ImageComments": "Unaliased MB3/PE3/LB SENSE1",
  "ImageOrientationPatientDICOM": [1, 0, 0, 0, 0.925871, -0.377841],
  "ImageOrientationText": "Tra>Cor(-22.2)",
  "ImageType": [
    "ORIGINAL",
    "PRIMARY",
    "DIFFUSION",
    "NONE",
    "MB",
    "ND",
    "MOSAIC"
],
  "ImagingFrequency": 123.259,
  "InPlanePhaseEncodingDirectionDICOM": "COL",
  "InstitutionAddress": "Chemin Queen-Mary 4565,Montreal,District,CA,H3W 1W5",
  "InstitutionName": "IUGM",
  "InstitutionalDepartmentName": "Department",
  "MRAcquisitionType": "2D",
  "MagneticFieldStrength": 3,
  "Manufacturer": "Siemens",
  "ManufacturersModelName": "Prisma_fit",
  "MatrixCoilMode": "SENSE",
  "Modality": "MR",
  "MultibandAccelerationFactor": 3,
  "PartialFourier": 0.75,
  "PatientPosition": "HFS",
  "PercentPhaseFOV": 100,
  "PercentSampling": 100,
  "PhaseEncodingDirection": "j-",
  "PhaseEncodingSteps": 83,
  "PhaseResolution": 1,
  "PixelBandwidth": 1685,
  "ProcedureStepDescription": "anat^generic",
  "ProtocolName": "dMRI_dir98_AP_test_cmrr",
  "PulseSequenceDetails": "%CustomerSeq%\\cmrr_mbep2d_diff",
  "ReceiveCoilActiveElements": "HC1-6",
  "ReceiveCoilName": "HeadNeck_64",
  "ReconMatrixPE": 110,
  "RepetitionTime": 2.334,
  "SAR": 0.114732,
  "ScanOptions": "PFP\\EXT",
  "ScanningSequence": "EP",
  "SequenceName": "ep_b5#1",
  "SequenceVariant": "SK\\SS",
  "SeriesDescription": "dMRI_dir98_AP_test_cmrr",
  "SeriesNumber": 7,
  "ShimSetting": [625, -7243, -8827, 728, 15, -66, 158, -6],
  "SliceThickness": 2,
  "SliceTiming": [0, 1.2175, 0.1225, 1.34, 0.245, 1.4625, 0.365, 1.585, 0.4875, 1.705, 0.61, 1.8275, 0.7325, 1.95, 0.8525, 2.07, 0.975, 2.1925, 1.0975, 0, 1.2175, 0.1225, 1.34, 0.245, 1.4625, 0.365, 1.585, 0.4875, 1.705, 0.61, 1.8275, 0.7325, 1.95, 0.8525, 2.07, 0.975, 2.1925, 1.0975, 0, 1.2175, 0.1225, 1.34, 0.245, 1.4625, 0.365, 1.585, 0.4875, 1.705, 0.61, 1.8275, 0.7325, 1.95, 0.8525, 2.07, 0.975, 2.1925, 1.0975],
  "SoftwareVersions": "syngo MR E11",
  "SpacingBetweenSlices": 2,
  "StationName": "MRC35049",
  "TotalReadoutTime": 0.0763001,
  "TxRefAmp": 207.678,
  "WipMemBlock": "19167d79-d303-4e44-bb6e-9efece6b049c||Sequence: R016 ve11c/master r/e634e98; Dec 19 2017 11:11:25 by eja",
  "dcmmeta_affine": [
    [-2.0, 0.0, 0.0, 109.49686431884766],
    [0.0, 1.8517411947250366, -0.7556815147399902, -69.46688842773438],
    [0.0, 0.7556815147399902, 1.8517411947250366, -69.7098388671875],
    [0.0, 0.0, 0.0, 1.0]
],
  "dcmmeta_reorient_transform": [
    [0.0, -1.0, 0.0, 109.0],
    [1.0, 0.0, 0.0, 0.0],
    [0.0, 0.0, 1.0, 0.0],
    [0.0, 0.0, 0.0, 1.0]
],
  "dcmmeta_shape": [110, 110, 57, 99],
  "dcmmeta_slice_dim": 2,
  "dcmmeta_version": 0.6,
  "global": {
    "const": {
      "AcquisitionMatrix": [110, 0, 0, 110],
      "AngioFlag": "N",
      "BitsAllocated": 16,
      "BitsStored": 16,
      "BodyPartExamined": "BRAIN",
      "CardiacNumberOfImages": 1,
      "Columns": 880,
      "EchoNumbers": 1,
      "EchoTime": 81.6,
      "EchoTrainLength": 83,
      "FlipAngle": 78.0,
      "HighBit": 15,
      "ImageOrientationPatient": [1.0, 0.0, 0.0, 0.0, 0.9258705945147, -0.3778407630378],
      "ImagePositionPatient": [-879.49686384201, -845.29325902194, 303.59683344836],
      "ImageType": [
        "ORIGINAL",
        "PRIMARY",
        "DIFFUSION",
        "NONE",
        "MB",
        "ND",
        "MOSAIC"
],
      "ImagedNucleus": "1H",
      "ImagingFrequency": 123.25897,
      "InPlanePhaseEncodingDirection": "COL",
      "MRAcquisitionType": "2D",
      "MagneticFieldStrength": 3.0,
      "Manufacturer": "SIEMENS",
      "ManufacturerModelName": "Prisma_fit",
      "Modality": "MR",
      "NominalInterval": 0,
      "NumberOfAverages": 1.0,
      "NumberOfPhaseEncodingSteps": 83,
      "PercentPhaseFieldOfView": 100.0,
      "PercentSampling": 100.0,
      "PerformedProcedureStepStartTime": "171144.933000",
      "PhotometricInterpretation": "MONOCHROME2",
      "PixelBandwidth": 1685.0,
      "PixelRepresentation": 0,
      "PixelSpacing": [2.0, 2.0],
      "ProtocolName": "dMRI_dir98_AP_test_cmrr",
      "RepetitionTime": 2334.0,
      "Rows": 880,
      "SAR": 0.11473230732188,
      "SamplesPerPixel": 1,
      "ScanOptions": [
        "PFP",
        "EXT"
],
      "ScanningSequence": "EP",
      "SequenceVariant": [
        "SK",
        "SS"
],
      "SeriesDescription": "dMRI_dir98_AP_test_cmrr",
      "SeriesNumber": 7,
      "SeriesTime": "172736.018000",
      "SliceLocation": -38.294869301942,
      "SliceThickness": 2.0,
      "SmallestImagePixelValue": 0,
      "SoftwareVersions": "syngo MR E11",
      "SpacingBetweenSlices": 1.9999999478913,
      "SpecificCharacterSet": "ISO_IR 100",
      "StudyID": "1",
      "StudyTime": "171144.827000",
      "TransmitCoilName": "Body",
      "VariableFlipAngleFlag": "N",
      "WindowCenterWidthExplanation": "Algo1",
      "dBdt": 0.0},
    "slices": {}
  },
  "time": {
    "samples": {
      "AcquisitionNumber": [1, 2, 3, 4, 5, 6, 7, 8, 9, 10, 11, 12, 13, 14, 15, 16, 17, 18, 19, 20, 21, 22, 23, 24, 25, 26, 27, 28, 29, 30, 31, 32, 33, 34, 35, 36, 37, 38, 39, 40, 41, 42, 43, 44, 45, 46, 47, 48, 49, 50, 51, 52, 53, 54, 55, 56, 57, 58, 59, 60, 61, 62, 63, 64, 65, 66, 67, 68, 69, 70, 71, 72, 73, 74, 75, 76, 77, 78, 79, 80, 81, 82, 83, 84, 85, 86, 87, 88, 89, 90, 91, 92, 93, 94, 95, 96, 97, 98, 99],
      "AcquisitionTime": ["172636.850000", "172639.185000", "172641.520000", "172643.852500", "172646.187500", "172648.520000", "172650.855000", "172653.190000", "172655.522500", "172657.857500", "172700.190000", "172702.525000", "172704.860000", "172707.192500", "172709.527500", "172711.860000", "172714.195000", "172716.530000", "172718.862500", "172721.197500", "172723.530000", "172725.865000", "172728.200000", "172730.532500", "172732.867500", "172735.200000", "172737.535000", "172739.870000", "172742.202500", "172744.537500", "172746.870000", "172749.205000", "172751.540000", "172753.872500", "172756.207500", "172758.540000", "172800.875000", "172803.210000", "172805.542500", "172807.877500", "172810.210000", "172812.545000", "172814.880000", "172817.212500", "172819.547500", "172821.880000", "172824.215000", "172826.550000", "172828.882500", "172831.217500", "172833.550000", "172835.885000", "172838.220000", "172840.552500", "172842.887500", "172845.220000", "172847.555000", "172849.890000", "172852.222500", "172854.557500", "172856.890000", "172859.225000", "172901.560000", "172903.892500", "172906.227500", "172908.560000", "172910.895000", "172913.230000", "172915.562500", "172917.897500", "172920.230000", "172922.565000", "172924.900000", "172927.232500", "172929.567500", "172931.900000", "172934.235000", "172936.570000", "172938.902500", "172941.237500", "172943.570000", "172945.905000", "172948.240000", "172950.572500", "172952.907500", "172955.240000", "172957.575000", "172959.910000", "173002.242500", "173004.577500", "173006.910000", "173009.245000", "173011.580000", "173013.912500", "173016.247500", "173018.580000", "173020.915000", "173023.250000", "173025.582500"],
      "ContentTime": ["172736.021000", "172736.028000", "172736.031000", "172736.034000", "172736.037000", "172736.041000", "172736.050000", "172736.053000", "172736.056000", "172736.060000", "172736.063000", "172736.066000", "172736.078000", "172736.082000", "172736.085000", "172736.088000", "172736.091000", "172736.094000", "172736.097000", "172736.100000", "172736.103000", "172736.112000", "172736.115000", "172736.118000", "172736.121000", "172835.983000", "172835.986000", "172835.989000", "172835.993000", "172835.996000", "172836.000000", "172836.003000", "172836.006000", "172836.009000", "172836.015000", "172836.018000", "172836.021000", "172836.024000", "172836.027000", "172836.031000", "172836.034000", "172836.037000", "172836.040000", "172836.043000", "172836.046000", "172836.049000", "172836.052000", "172836.055000", "172836.058000", "172836.061000", "172935.983000", "172935.986000", "172935.989000", "172935.992000", "172935.996000", "172936.000000", "172936.003000", "172936.006000", "172936.009000", "172936.012000", "172936.015000", "172936.018000", "172936.021000", "172936.024000", "172936.027000", "172936.030000", "172936.033000", "172936.036000", "172936.039000", "172936.042000", "172936.046000", "172936.049000", "172936.052000", "172936.055000", "172936.058000", "172936.061000", "173030.770000", "173030.775000", "173030.783000", "173030.788000", "173030.791000", "173030.797000", "173030.800000", "173030.804000", "173030.807000", "173030.810000", "173030.813000", "173030.817000", "173030.821000", "173030.824000", "173030.828000", "173030.831000", "173030.834000", "173030.838000", "173030.841000", "173030.846000", "173030.850000", "173030.853000", "173030.857000"],
      "InstanceCreationTime": ["172736.021000", "172736.028000", "172736.031000", "172736.034000", "172736.037000", "172736.041000", "172736.050000", "172736.053000", "172736.056000", "172736.060000", "172736.063000", "172736.066000", "172736.078000", "172736.082000", "172736.085000", "172736.088000", "172736.091000", "172736.094000", "172736.097000", "172736.100000", "172736.103000", "172736.112000", "172736.115000", "172736.118000", "172736.121000", "172835.983000", "172835.986000", "172835.989000", "172835.993000", "172835.996000", "172836.000000", "172836.003000", "172836.006000", "172836.009000", "172836.015000", "172836.018000", "172836.021000", "172836.024000", "172836.027000", "172836.031000", "172836.034000", "172836.037000", "172836.040000", "172836.043000", "172836.046000", "172836.049000", "172836.052000", "172836.055000", "172836.058000", "172836.061000", "172935.983000", "172935.986000", "172935.989000", "172935.992000", "172935.996000", "172936.000000", "172936.003000", "172936.006000", "172936.009000", "172936.012000", "172936.015000", "172936.018000", "172936.021000", "172936.024000", "172936.027000", "172936.030000", "172936.033000", "172936.036000", "172936.039000", "172936.042000", "172936.046000", "172936.049000", "172936.052000", "172936.055000", "172936.058000", "172936.061000", "173030.770000", "173030.775000", "173030.783000", "173030.788000", "173030.791000", "173030.797000", "173030.800000", "173030.804000", "173030.807000", "173030.810000", "173030.813000", "173030.817000", "173030.821000", "173030.824000", "173030.828000", "173030.831000", "173030.834000", "173030.838000", "173030.841000", "173030.846000", "173030.850000", "173030.853000", "173030.857000"],
      "InstanceNumber": [1, 2, 3, 4, 5, 6, 7, 8, 9, 10, 11, 12, 13, 14, 15, 16, 17, 18, 19, 20, 21, 22, 23, 24, 25, 26, 27, 28, 29, 30, 31, 32, 33, 34, 35, 36, 37, 38, 39, 40, 41, 42, 43, 44, 45, 46, 47, 48, 49, 50, 51, 52, 53, 54, 55, 56, 57, 58, 59, 60, 61, 62, 63, 64, 65, 66, 67, 68, 69, 70, 71, 72, 73, 74, 75, 76, 77, 78, 79, 80, 81, 82, 83, 84, 85, 86, 87, 88, 89, 90, 91, 92, 93, 94, 95, 96, 97, 98, 99],
      "LargestImagePixelValue": [33137, 33644, 8366, 4257, 10181, 4557, 8665, 4430, 9123, 4272, 9655, 4613, 9054, 4192, 8841, 5441, 9787, 32509, 4709, 8721, 4447, 8740, 4897, 8641, 4109, 8861, 4550, 9777, 4589, 8429, 4594, 9442, 4476, 33208, 8696, 4026, 8135, 3936, 8444, 4364, 8879, 4535, 9179, 4026, 8517, 4022, 8930, 4378, 10241, 33025, 4517, 7914, 4082, 8819, 4996, 8394, 4212, 9157, 4630, 9100, 4840, 8889, 4002, 9137, 4942, 31908, 8661, 4108, 7979, 4283, 8785, 4625, 8854, 3993, 8048, 4345, 8243, 4022, 8184, 4477, 8869, 33822, 4458, 9286, 4169, 9020, 4373, 8412, 4020, 8187, 4655, 9570, 4123, 9706, 5010, 9028, 4909, 8443, 3676],
      "SequenceName": [
 "ep_b5#1",
 "ep_b5#1",
 "ep_b1490#2",
 "ep_b2990#3",
 "ep_b1495#4",
 "ep_b3005#5",
 "ep_b1500#6",
 "ep_b2985#7",
 "ep_b1495#8",
 "ep_b3005#9",
 "ep_b1490#10",
 "ep_b2995#11",
 "ep_b1495#12",
 "ep_b2990#13",
 "ep_b1500#14",
 "ep_b2985#15",
 "ep_b1500#16",
 "ep_b5#17",
 "ep_b3005#18",
 "ep_b1490#19",
 "ep_b2995#20",
 "ep_b1495#21",
 "ep_b3000#22",
 "ep_b1495#23",
 "ep_b3000#24",
 "ep_b1490#25",
 "ep_b2985#26",
 "ep_b1505#27",
 "ep_b2990#28",
 "ep_b1495#29",
 "ep_b3000#30",
 "ep_b1490#31",
 "ep_b3000#32",
 "ep_b5#33",
 "ep_b1505#34",
 "ep_b3000#35",
 "ep_b1490#36",
 "ep_b2985#37",
 "ep_b1495#38",
 "ep_b2995#39",
 "ep_b1500#40",
 "ep_b2995#41",
 "ep_b1500#42",
 "ep_b2990#43",
 "ep_b1495#44",
 "ep_b3000#45",
 "ep_b1495#46",
 "ep_b3000#47",
 "ep_b1490#48",
 "ep_b5#49",
 "ep_b3000#50",
 "ep_b1495#51",
 "ep_b2995#52",
 "ep_b1505#53",
 "ep_b2995#54",
 "ep_b1495#55",
 "ep_b2990#56",
 "ep_b1490#57",
 "ep_b2995#58",
 "ep_b1500#59",
 "ep_b3000#60",
 "ep_b1500#61",
 "ep_b2985#62",
 "ep_b1500#63",
 "ep_b2990#64",
 "ep_b5#65",
 "ep_b1505#66",
 "ep_b3005#67",
 "ep_b1495#68",
 "ep_b3000#69",
 "ep_b1505#70",
 "ep_b3005#71",
 "ep_b1500#72",
 "ep_b3005#73",
 "ep_b1495#74",
 "ep_b2995#75",
 "ep_b1495#76",
 "ep_b2995#77",
 "ep_b1500#78",
 "ep_b3000#79",
 "ep_b1490#80",
 "ep_b5#81",
 "ep_b2990#82",
 "ep_b1500#83",
 "ep_b2985#84",
 "ep_b1495#85",
 "ep_b2995#86",
 "ep_b1495#87",
 "ep_b2990#88",
 "ep_b1490#89",
 "ep_b2985#90",
 "ep_b1500#91",
 "ep_b3000#92",
 "ep_b1495#93",
 "ep_b3005#94",
 "ep_b1495#95",
 "ep_b2990#96",
 "ep_b1500#97",
 "ep_b3000#98"
],
      "TriggerTime": [13297.5, 15632.5, 17965.0, 20300.0, 22635.0, 24967.5, 27302.5, 29635.0, 31970.0, 34305.0, 36637.5, 38972.5, 41305.0, 43640.0, 45975.0, 48307.5, 50642.5, 52975.0, 55310.0, 57645.0, 59977.5, 62312.5, 64645.0, 66980.0, 69315.0, 71647.5, 73982.5, 76315.0, 78650.0, 80985.0, 83317.5, 85652.5, 87985.0, 90320.0, 92655.0, 94987.5, 97322.5, 99655.0, 101990.0, 104325.0, 106657.5, 108992.5, 111325.0, 113660.0, 115995.0, 118327.5, 120662.5, 122995.0, 125330.0, 127665.0, 129997.5, 132332.5, 134665.0, 137000.0, 139335.0, 141667.5, 144002.5, 146335.0, 148670.0, 151005.0, 153337.5, 155672.5, 158005.0, 160340.0, 162675.0, 165007.5, 167342.5, 169675.0, 172010.0, 174345.0, 176677.5, 179012.5, 181345.0, 183680.0, 186015.0, 188347.5, 190682.5, 193015.0, 195350.0, 197685.0, 200017.5, 202352.5, 204685.0, 207020.0, 209355.0, 211687.5, 214022.5, 216355.0, 218690.0, 221025.0, 223357.5, 225692.5, 228025.0, 230360.0, 232695.0, 235027.5, 237362.5, 239695.0, 242030.0],
      "WindowCenter": [6878.0, 6876.0, 2626.0, 1561.0, 2736.0, 1578.0, 2696.0, 1535.0, 2630.0, 1532.0, 2639.0, 1582.0, 2727.0, 1557.0, 2668.0, 1594.0, 2652.0, 6815.0, 1574.0, 2659.0, 1598.0, 2660.0, 1581.0, 2596.0, 1571.0, 2641.0, 1546.0, 2705.0, 1568.0, 2654.0, 1550.0, 2683.0, 1580.0, 6834.0, 2652.0, 1527.0, 2575.0, 1521.0, 2653.0, 1620.0, 2673.0, 1547.0, 2653.0, 1568.0, 2614.0, 1565.0, 2617.0, 1569.0, 2694.0, 6830.0, 1563.0, 2663.0, 1559.0, 2628.0, 1596.0, 2641.0, 1599.0, 2683.0, 1560.0, 2644.0, 1546.0, 2624.0, 1514.0, 2718.0, 1612.0, 6766.0, 2624.0, 1554.0, 2629.0, 1598.0, 2635.0, 1566.0, 2672.0, 1519.0, 2612.0, 1552.0, 2628.0, 1584.0, 2671.0, 1564.0, 2661.0, 6834.0, 1577.0, 2628.0, 1532.0, 2708.0, 1551.0, 2603.0, 1556.0, 2609.0, 1572.0, 2656.0, 1571.0, 2749.0, 1575.0, 2662.0, 1567.0, 2631.0, 1545.0],
      "WindowWidth": [14814.0, 14817.0, 6246.0, 4034.0, 6469.0, 4062.0, 6398.0, 3978.0, 6265.0, 3960.0, 6265.0, 4081.0, 6452.0, 4039.0, 6338.0, 4107.0, 6301.0, 14676.0, 4050.0, 6324.0, 4119.0, 6322.0, 4086.0, 6195.0, 4063.0, 6270.0, 3987.0, 6387.0, 4062.0, 6314.0, 4013.0, 6366.0, 4068.0, 14712.0, 6293.0, 3973.0, 6152.0, 3938.0, 6299.0, 4179.0, 6338.0, 4005.0, 6302.0, 4051.0, 6230.0, 4034.0, 6235.0, 4063.0, 6373.0, 14702.0, 4030.0, 6333.0, 4047.0, 6249.0, 4122.0, 6285.0, 4122.0, 6358.0, 4024.0, 6298.0, 4000.0, 6243.0, 3916.0, 6432.0, 4154.0, 14573.0, 6239.0, 4025.0, 6267.0, 4123.0, 6263.0, 4045.0, 6352.0, 3933.0, 6220.0, 4024.0, 6259.0, 4088.0, 6342.0, 4043.0, 6302.0, 14697.0, 4056.0, 6259.0, 3964.0, 6405.0, 4020.0, 6207.0, 4032.0, 6210.0, 4036.0, 6314.0, 4065.0, 6491.0, 4056.0, 6323.0, 4057.0, 6265.0, 4009.0]
    },
    "slices": {}
  }
}