{
  "AcquisitionMatrixPE": 110,
  "AcquisitionNumber": 1,
  "AcquisitionTime": "10:09:46.105000",
  "BandwidthPerPixelPhaseEncode": 12.987,
  "BaseResolution": 110,
  "BodyPartExamined": "BRAIN",
  "ConsistencyInfo": "N4_VE11C_LATEST_20160120",
  "ConversionSoftware": "dcm2niix",
  "ConversionSoftwareVersion": "v1.0.20190902",
  "DerivedVendorReportedEchoSpacing": 0.000700001,
  "DeviceSerialNumber": "167006",
  "DiffusionScheme": "Monopolar",
  "DwellTime": 2.7e-06,
  "EchoTime": 0.0816,
  "EchoTrainLength": 83,
  "EffectiveEchoSpacing": 0.000700001,
  "FlipAngle": 78,
  "ImageComments": "Unaliased_MB3_PE3_LB_SENSE1",
  "ImageOrientationPatientDICOM": [1, 0, 0, 0, 0.987688, -0.156434],
  "ImageType": [
    "ORIGINAL",
    "PRIMARY",
    "DIFFUSION",
    "NONE",
    "MB",
    "ND",
    "MOSAIC"
],
  "ImagingFrequency": 123.258,
  "InPlanePhaseEncodingDirectionDICOM": "COL",
  "InstitutionAddress": "Chemin_Queen-Mary_4565_Montreal_District_CA_H3W_1W5",
  "InstitutionName": "IUGM",
  "InstitutionalDepartmentName": "Department",
  "MRAcquisitionType": "2D",
  "MagneticFieldStrength": 3,
  "Manufacturer": "Siemens",
  "ManufacturersModelName": "Prisma_fit",
  "Modality": "MR",
  "MultibandAccelerationFactor": 3,
  "PartialFourier": 0.75,
  "PatientPosition": "HFS",
  "PercentPhaseFOV": 100,
  "PhaseEncodingDirection": "j-",
  "PhaseEncodingSteps": 83,
  "PhaseResolution": 1,
  "PixelBandwidth": 1685,
  "ProcedureStepDescription": "anat_generic",
  "ProtocolName": "dMRI_dir98_AP_test_cmrr",
  "PulseSequenceDetails": "%CustomerSeq%_cmrr_mbep2d_diff",
  "ReceiveCoilActiveElements": "HC1-6",
  "ReceiveCoilName": "HeadNeck_64",
  "ReconMatrixPE": 110,
  "RepetitionTime": 2.334,
  "SAR": 0.109673,
  "ScanOptions": "PFP_EXT",
  "ScanningSequence": "EP",
  "SequenceName": "ep_b5#1",
  "SequenceVariant": "SK_SS",
  "SeriesDescription": "dMRI_dir98_AP_test_cmrr",
  "SeriesNumber": 7,
  "ShimSetting": [595, -7261, -8814, 596, -44, -250, 81, 59],
  "SliceThickness": 2,
  "SliceTiming": [0, 1.2175, 0.12, 1.3375, 0.2425, 1.46, 0.365, 1.5825, 0.485, 1.7025, 0.6075, 1.825, 0.73, 1.9475, 0.8525, 2.07, 0.9725, 2.19, 1.095, 0, 1.2175, 0.12, 1.3375, 0.2425, 1.46, 0.365, 1.5825, 0.485, 1.7025, 0.6075, 1.825, 0.73, 1.9475, 0.8525, 2.07, 0.9725, 2.19, 1.095, 0, 1.2175, 0.12, 1.3375, 0.2425, 1.46, 0.365, 1.5825, 0.485, 1.7025, 0.6075, 1.825, 0.73, 1.9475, 0.8525, 2.07, 0.9725, 2.19, 1.095],
  "SoftwareVersions": "syngo_MR_E11",
  "SpacingBetweenSlices": 2,
  "StationName": "MRC35049",
  "TotalReadoutTime": 0.0763001,
  "TxRefAmp": 216.957,
  "WipMemBlock": "d977b6f5-96f6-4d58-92ff-33d259da2efe||Sequence: R016 ve11c/master r/e634e98; Dec 19 2017 11:11:25 by eja",
  "dcmmeta_affine": [
    [-2.0, 0.0, 0.0, 109.49686431884766],
    [0.0, 1.9753767251968384, -0.3128689229488373, -88.56605529785156],
    [0.0, 0.3128689229488373, 1.9753767251968384, -44.72963333129883],
    [0.0, 0.0, 0.0, 1.0]
],
  "dcmmeta_reorient_transform": [
    [0.0, -1.0, 0.0, 109.0],
    [1.0, 0.0, 0.0, 0.0],
    [0.0, 0.0, 1.0, 0.0],
    [0.0, 0.0, 0.0, 1.0]
],
  "dcmmeta_shape": [110, 110, 57, 99],
  "dcmmeta_slice_dim": 2,
  "dcmmeta_version": 0.6,
  "global": {
    "const": {
      "AcquisitionMatrix": [110, 0, 0, 110],
      "AngioFlag": "N",
      "BitsAllocated": 16,
      "BitsStored": 16,
      "BodyPartExamined": "BRAIN",
      "CardiacNumberOfImages": 1,
      "Columns": 880,
      "EchoNumbers": 1,
      "EchoTime": 81.6,
      "EchoTrainLength": 83,
      "FlipAngle": 78.0,
      "HighBit": 15,
      "ImageOrientationPatient": [1.0, 0.0, 0.0, 0.0, 0.98768834057476, -0.1564344651689],
      "ImagePositionPatient": [-879.49686384201, -887.27002589964, 109.8276182738],
      "ImageType": [
        "ORIGINAL",
        "PRIMARY",
        "DIFFUSION",
        "NONE",
        "MB",
        "ND",
        "MOSAIC"
],
      "ImagedNucleus": "1H",
      "ImagingFrequency": 123.258357,
      "InPlanePhaseEncodingDirection": "COL",
      "MRAcquisitionType": "2D",
      "MagneticFieldStrength": 3.0,
      "Manufacturer": "SIEMENS",
      "ManufacturerModelName": "Prisma_fit",
      "Modality": "MR",
      "NominalInterval": 0,
      "NumberOfAverages": 1.0,
      "NumberOfPhaseEncodingSteps": 83,
      "PercentPhaseFieldOfView": 100.0,
      "PercentSampling": 100.0,
      "PerformedProcedureStepStartTime": "093201.858000",
      "PhotometricInterpretation": "MONOCHROME2",
      "PixelBandwidth": 1685.0,
      "PixelRepresentation": 0,
      "PixelSpacing": [2.0, 2.0],
      "ProtocolName": "dMRI_dir98_AP_test_cmrr",
      "RepetitionTime": 2334.0,
      "Rows": 880,
      "SAR": 0.10967293727259,
      "SamplesPerPixel": 1,
      "ScanOptions": [
        "PFP",
        "EXT"
],
      "ScanningSequence": "EP",
      "SequenceVariant": [
        "SK",
        "SS"
],
      "SeriesDescription": "dMRI_dir98_AP_test_cmrr",
      "SeriesNumber": 7,
      "SeriesTime": "101036.806000",
      "SliceLocation": -30.324153919875,
      "SliceThickness": 2.0,
      "SmallestImagePixelValue": 0,
      "SoftwareVersions": "syngo MR E11",
      "SpacingBetweenSlices": 2.000000028859,
      "SpecificCharacterSet": "ISO_IR 100",
      "StudyID": "1",
      "StudyTime": "093201.804000",
      "TransmitCoilName": "Body",
      "VariableFlipAngleFlag": "N",
      "WindowCenterWidthExplanation": "Algo1",
      "dBdt": 0.0},
    "slices": {}
  },
  "time": {
    "samples": {
      "AcquisitionNumber": [1, 2, 3, 4, 5, 6, 7, 8, 9, 10, 11, 12, 13, 14, 15, 16, 17, 18, 19, 20, 21, 22, 23, 24, 25, 26, 27, 28, 29, 30, 31, 32, 33, 34, 35, 36, 37, 38, 39, 40, 41, 42, 43, 44, 45, 46, 47, 48, 49, 50, 51, 52, 53, 54, 55, 56, 57, 58, 59, 60, 61, 62, 63, 64, 65, 66, 67, 68, 69, 70, 71, 72, 73, 74, 75, 76, 77, 78, 79, 80, 81, 82, 83, 84, 85, 86, 87, 88, 89, 90, 91, 92, 93, 94, 95, 96, 97, 98, 99],
      "AcquisitionTime": ["100946.105000", "100948.437500", "100950.772500", "100953.105000", "100955.440000", "100957.775000", "101000.107500", "101002.442500", "101004.775000", "101007.110000", "101009.445000", "101011.777500", "101014.112500", "101016.445000", "101018.780000", "101021.115000", "101023.447500", "101025.782500", "101028.115000", "101030.450000", "101032.785000", "101035.117500", "101037.452500", "101039.785000", "101042.120000", "101044.455000", "101046.787500", "101049.122500", "101051.455000", "101053.790000", "101056.125000", "101058.457500", "101100.792500", "101103.125000", "101105.460000", "101107.795000", "101110.127500", "101112.462500", "101114.795000", "101117.130000", "101119.465000", "101121.797500", "101124.132500", "101126.465000", "101128.800000", "101131.135000", "101133.467500", "101135.802500", "101138.135000", "101140.470000", "101142.805000", "101145.137500", "101147.472500", "101149.805000", "101152.140000", "101154.475000", "101156.807500", "101159.142500", "101201.475000", "101203.810000", "101206.145000", "101208.477500", "101210.812500", "101213.145000", "101215.480000", "101217.815000", "101220.147500", "101222.482500", "101224.815000", "101227.150000", "101229.485000", "101231.817500", "101234.152500", "101236.485000", "101238.820000", "101241.155000", "101243.487500", "101245.822500", "101248.155000", "101250.490000", "101252.825000", "101255.157500", "101257.492500", "101259.825000", "101302.160000", "101304.495000", "101306.827500", "101309.162500", "101311.495000", "101313.830000", "101316.165000", "101318.497500", "101320.832500", "101323.165000", "101325.500000", "101327.835000", "101330.167500", "101332.502500", "101334.835000"],
      "ContentTime": ["101036.810000", "101036.813000", "101036.817000", "101036.820000", "101036.823000", "101036.827000", "101036.830000", "101036.834000", "101036.837000", "101036.840000", "101036.843000", "101036.848000", "101036.864000", "101036.868000", "101036.871000", "101036.874000", "101036.878000", "101036.881000", "101036.884000", "101036.887000", "101036.890000", "101136.759000", "101136.762000", "101136.765000", "101136.768000", "101136.772000", "101136.775000", "101136.778000", "101136.781000", "101136.784000", "101136.787000", "101136.790000", "101136.793000", "101136.796000", "101136.799000", "101136.803000", "101136.806000", "101136.809000", "101136.812000", "101136.815000", "101136.818000", "101136.821000", "101136.824000", "101136.827000", "101136.830000", "101136.833000", "101136.836000", "101236.759000", "101236.762000", "101236.765000", "101236.769000", "101236.772000", "101236.775000", "101236.778000", "101236.781000", "101236.784000", "101236.787000", "101236.790000", "101236.793000", "101236.796000", "101236.799000", "101236.802000", "101236.805000", "101236.816000", "101236.819000", "101236.822000", "101236.825000", "101236.828000", "101236.831000", "101236.834000", "101236.837000", "101236.841000", "101336.759000", "101336.762000", "101336.765000", "101336.769000", "101336.772000", "101336.775000", "101336.778000", "101336.781000", "101336.784000", "101336.787000", "101336.790000", "101336.793000", "101336.796000", "101336.799000", "101336.802000", "101336.806000", "101336.809000", "101336.812000", "101336.815000", "101336.818000", "101336.821000", "101336.824000", "101336.827000", "101336.830000", "101336.833000", "101336.836000", "101339.724000"],
      "InstanceCreationTime": ["101036.810000", "101036.813000", "101036.817000", "101036.820000", "101036.823000", "101036.827000", "101036.830000", "101036.834000", "101036.837000", "101036.840000", "101036.843000", "101036.848000", "101036.864000", "101036.868000", "101036.871000", "101036.874000", "101036.878000", "101036.881000", "101036.884000", "101036.887000", "101036.890000", "101136.759000", "101136.762000", "101136.765000", "101136.768000", "101136.772000", "101136.775000", "101136.778000", "101136.781000", "101136.784000", "101136.787000", "101136.790000", "101136.793000", "101136.796000", "101136.799000", "101136.803000", "101136.806000", "101136.809000", "101136.812000", "101136.815000", "101136.818000", "101136.821000", "101136.824000", "101136.827000", "101136.830000", "101136.833000", "101136.836000", "101236.759000", "101236.762000", "101236.765000", "101236.769000", "101236.772000", "101236.775000", "101236.778000", "101236.781000", "101236.784000", "101236.787000", "101236.790000", "101236.793000", "101236.796000", "101236.799000", "101236.802000", "101236.805000", "101236.816000", "101236.819000", "101236.822000", "101236.825000", "101236.828000", "101236.831000", "101236.834000", "101236.837000", "101236.841000", "101336.759000", "101336.762000", "101336.765000", "101336.769000", "101336.772000", "101336.775000", "101336.778000", "101336.781000", "101336.784000", "101336.787000", "101336.790000", "101336.793000", "101336.796000", "101336.799000", "101336.802000", "101336.806000", "101336.809000", "101336.812000", "101336.815000", "101336.818000", "101336.821000", "101336.824000", "101336.827000", "101336.830000", "101336.833000", "101336.836000", "101339.724000"],
      "InstanceNumber": [1, 2, 3, 4, 5, 6, 7, 8, 9, 10, 11, 12, 13, 14, 15, 16, 17, 18, 19, 20, 21, 22, 23, 24, 25, 26, 27, 28, 29, 30, 31, 32, 33, 34, 35, 36, 37, 38, 39, 40, 41, 42, 43, 44, 45, 46, 47, 48, 49, 50, 51, 52, 53, 54, 55, 56, 57, 58, 59, 60, 61, 62, 63, 64, 65, 66, 67, 68, 69, 70, 71, 72, 73, 74, 75, 76, 77, 78, 79, 80, 81, 82, 83, 84, 85, 86, 87, 88, 89, 90, 91, 92, 93, 94, 95, 96, 97, 98, 99],
      "LargestImagePixelValue": [34735, 35210, 10622, 4736, 10120, 4553, 10132, 4497, 9417, 5232, 9417, 4300, 9594, 5072, 10596, 5519, 9715, 34605, 5601, 9788, 4638, 9647, 4731, 9075, 4453, 10486, 4571, 9055, 6219, 9312, 5476, 9843, 4089, 33131, 10154, 4820, 9550, 4424, 9848, 4069, 8991, 4159, 9436, 4273, 9680, 4279, 9420, 6522, 9291, 33170, 4237, 9165, 4681, 10383, 5104, 8859, 4334, 10139, 5024, 9503, 5727, 9632, 5398, 8760, 4702, 36292, 9822, 5450, 9327, 4604, 8751, 4573, 9384, 4567, 9158, 4968, 10531, 4593, 10199, 4229, 9104, 35844, 4504, 9777, 4695, 9893, 5917, 9117, 4110, 10133, 4440, 9071, 5017, 9855, 6055, 9067, 5013, 11251, 4460],
      "SequenceName": [
 "ep_b5#1",
 "ep_b5#1",
 "ep_b1490#2",
 "ep_b2990#3",
 "ep_b1495#4",
 "ep_b3005#5",
 "ep_b1500#6",
 "ep_b2990#7",
 "ep_b1495#8",
 "ep_b3005#9",
 "ep_b1490#10",
 "ep_b2995#11",
 "ep_b1490#12",
 "ep_b2990#13",
 "ep_b1500#14",
 "ep_b2985#15",
 "ep_b1500#16",
 "ep_b5#17",
 "ep_b3005#18",
 "ep_b1490#19",
 "ep_b2995#20",
 "ep_b1500#21",
 "ep_b3000#22",
 "ep_b1495#23",
 "ep_b3005#24",
 "ep_b1495#25",
 "ep_b2985#26",
 "ep_b1505#27",
 "ep_b2995#28",
 "ep_b1500#29",
 "ep_b3000#30",
 "ep_b1490#31",
 "ep_b3000#32",
 "ep_b5#33",
 "ep_b1505#34",
 "ep_b3000#35",
 "ep_b1495#36",
 "ep_b2985#37",
 "ep_b1495#38",
 "ep_b2995#39",
 "ep_b1500#40",
 "ep_b2995#41",
 "ep_b1500#42",
 "ep_b2990#43",
 "ep_b1495#44",
 "ep_b2995#45",
 "ep_b1495#46",
 "ep_b3000#47",
 "ep_b1490#48",
 "ep_b5#49",
 "ep_b3005#50",
 "ep_b1500#51",
 "ep_b2990#52",
 "ep_b1505#53",
 "ep_b2995#54",
 "ep_b1495#55",
 "ep_b2990#56",
 "ep_b1490#57",
 "ep_b2995#58",
 "ep_b1500#59",
 "ep_b3000#60",
 "ep_b1500#61",
 "ep_b2985#62",
 "ep_b1500#63",
 "ep_b2990#64",
 "ep_b5#65",
 "ep_b1505#66",
 "ep_b3005#67",
 "ep_b1495#68",
 "ep_b3000#69",
 "ep_b1505#70",
 "ep_b3005#71",
 "ep_b1495#72",
 "ep_b3000#73",
 "ep_b1495#74",
 "ep_b2995#75",
 "ep_b1495#76",
 "ep_b2995#77",
 "ep_b1505#78",
 "ep_b3000#79",
 "ep_b1495#80",
 "ep_b5#81",
 "ep_b2990#82",
 "ep_b1500#83",
 "ep_b2985#84",
 "ep_b1495#85",
 "ep_b2995#86",
 "ep_b1495#87",
 "ep_b2995#88",
 "ep_b1490#89",
 "ep_b2985#90",
 "ep_b1500#91",
 "ep_b3000#92",
 "ep_b1490#93",
 "ep_b3005#94",
 "ep_b1495#95",
 "ep_b2990#96",
 "ep_b1500#97",
 "ep_b3000#98"
],
      "TriggerTime": [13295.0, 15630.0, 17965.0, 20297.5, 22632.5, 24965.0, 27300.0, 29635.0, 31967.5, 34302.5, 36635.0, 38970.0, 41305.0, 43637.5, 45972.5, 48305.0, 50640.0, 52975.0, 55307.5, 57642.5, 59975.0, 62310.0, 64645.0, 66977.5, 69312.5, 71645.0, 73980.0, 76315.0, 78647.5, 80982.5, 83315.0, 85650.0, 87985.0, 90317.5, 92652.5, 94985.0, 97320.0, 99655.0, 101987.5, 104322.5, 106655.0, 108990.0, 111325.0, 113657.5, 115992.5, 118325.0, 120660.0, 122995.0, 125327.5, 127662.5, 129995.0, 132330.0, 134665.0, 136997.5, 139332.5, 141665.0, 144000.0, 146335.0, 148667.5, 151002.5, 153335.0, 155670.0, 158005.0, 160337.5, 162672.5, 165005.0, 167340.0, 169675.0, 172007.5, 174342.5, 176675.0, 179010.0, 181345.0, 183677.5, 186012.5, 188345.0, 190680.0, 193015.0, 195347.5, 197682.5, 200015.0, 202350.0, 204685.0, 207017.5, 209352.5, 211685.0, 214020.0, 216355.0, 218687.5, 221022.5, 223355.0, 225690.0, 228025.0, 230357.5, 232692.5, 235025.0, 237360.0, 239695.0, 242027.5],
      "WindowCenter": [6729.0, 6729.0, 2648.0, 1556.0, 2737.0, 1539.0, 2700.0, 1535.0, 2673.0, 1516.0, 2608.0, 1553.0, 2722.0, 1588.0, 2675.0, 1586.0, 2638.0, 6673.0, 1577.0, 2699.0, 1541.0, 2694.0, 1580.0, 2661.0, 1567.0, 2631.0, 1504.0, 2664.0, 1631.0, 2707.0, 1561.0, 2696.0, 1534.0, 6653.0, 2661.0, 1544.0, 2625.0, 1490.0, 2655.0, 1554.0, 2666.0, 1520.0, 2623.0, 1534.0, 2660.0, 1496.0, 2653.0, 1624.0, 2654.0, 6668.0, 1496.0, 2703.0, 1576.0, 2615.0, 1595.0, 2667.0, 1579.0, 2692.0, 1546.0, 2687.0, 1559.0, 2622.0, 1529.0, 2706.0, 1579.0, 6663.0, 2621.0, 1584.0, 2699.0, 1545.0, 2644.0, 1534.0, 2681.0, 1488.0, 2611.0, 1589.0, 2677.0, 1579.0, 2719.0, 1518.0, 2638.0, 6676.0, 1526.0, 2653.0, 1521.0, 2708.0, 1587.0, 2643.0, 1531.0, 2612.0, 1504.0, 2673.0, 1588.0, 2743.0, 1590.0, 2647.0, 1576.0, 2656.0, 1543.0],
      "WindowWidth": [14582.0, 14580.0, 6282.0, 4019.0, 6473.0, 3974.0, 6386.0, 3989.0, 6352.0, 3908.0, 6207.0, 4033.0, 6440.0, 4098.0, 6346.0, 4087.0, 6274.0, 14447.0, 4045.0, 6396.0, 3992.0, 6377.0, 4096.0, 6328.0, 4062.0, 6246.0, 3892.0, 6321.0, 4192.0, 6408.0, 4020.0, 6395.0, 3985.0, 14412.0, 6305.0, 4002.0, 6246.0, 3853.0, 6294.0, 4040.0, 6331.0, 3963.0, 6244.0, 3980.0, 6323.0, 3885.0, 6306.0, 4162.0, 6305.0, 14425.0, 3889.0, 6397.0, 4076.0, 6215.0, 4130.0, 6336.0, 4082.0, 6369.0, 3981.0, 6384.0, 4008.0, 6244.0, 3929.0, 6408.0, 4094.0, 14404.0, 6232.0, 4079.0, 6402.0, 4005.0, 6290.0, 3986.0, 6365.0, 3850.0, 6220.0, 4108.0, 6342.0, 4083.0, 6430.0, 3955.0, 6268.0, 14427.0, 3946.0, 6302.0, 3931.0, 6405.0, 4094.0, 6286.0, 3979.0, 6205.0, 3889.0, 6355.0, 4093.0, 6474.0, 4075.0, 6294.0, 4083.0, 6298.0, 3994.0]
    },
    "slices": {}
  }
}