{
  "AcquisitionMatrixPE": 110,
  "AcquisitionNumber": 1,
  "AcquisitionTime": "10:50:24.332500",
  "BandwidthPerPixelPhaseEncode": 12.987,
  "BaseResolution": 110,
  "BodyPartExamined": "BRAIN",
  "CoilCombinationMethod": "Sum of Squares",
  "ConsistencyInfo": "N4_VE11C_LATEST_20160120",
  "ConversionSoftware": "dcm2niix",
  "ConversionSoftwareVersion": "v1.0.20220505",
  "DerivedVendorReportedEchoSpacing": 0.000700001,
  "DeviceSerialNumber": "167006",
  "DiffusionScheme": "Monopolar",
  "DwellTime": 2.7e-06,
  "EchoTime": 0.0768,
  "EchoTrainLength": 83,
  "EffectiveEchoSpacing": 0.000700001,
  "FlipAngle": 78,
  "HeudiconvVersion": "0.5.3.post811+g6206e14",
  "ImageComments": "Unaliased MB3/PE3/LB SENSE1+",
  "ImageOrientationPatientDICOM": [1, 0, 0, 0, 0.838671, -0.544639],
  "ImageOrientationText": "Tra>Cor(-33.0)",
  "ImageType": [
    "ORIGINAL",
    "PRIMARY",
    "DIFFUSION",
    "NONE",
    "MB",
    "ND",
    "MOSAIC"
],
  "ImagingFrequency": 123.26,
  "InPlanePhaseEncodingDirectionDICOM": "COL",
  "InstitutionAddress": "Chemin Queen-Mary 4565,Montreal,District,CA,H3W 1W5",
  "InstitutionName": "IUGM",
  "InstitutionalDepartmentName": "Department",
  "MRAcquisitionType": "2D",
  "MagneticFieldStrength": 3,
  "Manufacturer": "Siemens",
  "ManufacturersModelName": "Prisma_fit",
  "MatrixCoilMode": "SENSE",
  "Modality": "MR",
  "MultibandAccelerationFactor": 3,
  "PartialFourier": 0.75,
  "PatientPosition": "HFS",
  "PercentPhaseFOV": 100,
  "PercentSampling": 100,
  "PhaseEncodingDirection": "j-",
  "PhaseEncodingSteps": 83,
  "PhaseResolution": 1,
  "PixelBandwidth": 1685,
  "ProcedureStepDescription": "anat^generic",
  "ProtocolName": "dMRI_dir106_AP_test_cmrr",
  "PulseSequenceDetails": "%CustomerSeq%\\cmrr_mbep2d_diff",
  "ReceiveCoilActiveElements": "HC1-7",
  "ReceiveCoilName": "HeadNeck_64",
  "ReconMatrixPE": 110,
  "RepetitionTime": 2.243,
  "SAR": 0.14728,
  "ScanOptions": "PFP\\EXT",
  "ScanningSequence": "EP",
  "SequenceName": "ep_b0",
  "SequenceVariant": "SK\\SS",
  "SeriesDescription": "dMRI_dir106_AP_test_cmrr",
  "SeriesNumber": 9,
  "ShimSetting": [607, -7216, -8855, 384, 10, -293, -5, 23],
  "SliceThickness": 2,
  "SliceTiming": [0, 1.17, 0.1175, 1.2875, 0.235, 1.405, 0.3525, 1.52, 0.4675, 1.6375, 0.585, 1.755, 0.7025, 1.8725, 0.82, 1.99, 0.935, 2.105, 1.0525, 0, 1.17, 0.1175, 1.2875, 0.235, 1.405, 0.3525, 1.52, 0.4675, 1.6375, 0.585, 1.755, 0.7025, 1.8725, 0.82, 1.99, 0.935, 2.105, 1.0525, 0, 1.17, 0.1175, 1.2875, 0.235, 1.405, 0.3525, 1.52, 0.4675, 1.6375, 0.585, 1.755, 0.7025, 1.8725, 0.82, 1.99, 0.935, 2.105, 1.0525],
  "SoftwareVersions": "syngo MR E11",
  "SpacingBetweenSlices": 2,
  "StationName": "MRC35049",
  "TotalReadoutTime": 0.0763001,
  "TxRefAmp": 252.054,
  "WipMemBlock": "51070a6c-2d9d-4d7b-87a9-8a53c07183d8||Sequence: R017 ve11c/master r/75a17815+; Jun 28 2022 16:41:33 by eja",
  "dcmmeta_affine": [
    [-2.0, 0.0, 0.0, 109.49686431884766],
    [0.0, 1.677341103553772, -1.0892781019210815, -64.56400299072266],
    [0.0, 1.0892781019210815, 1.677341103553772, -98.96133422851562],
    [0.0, 0.0, 0.0, 1.0]
],
  "dcmmeta_reorient_transform": [
    [0.0, -1.0, 0.0, 109.0],
    [1.0, 0.0, 0.0, 0.0],
    [0.0, 0.0, 1.0, 0.0],
    [0.0, 0.0, 0.0, 1.0]
],
  "dcmmeta_shape": [110, 110, 57, 107],
  "dcmmeta_slice_dim": 2,
  "dcmmeta_version": 0.6,
  "global": {
    "const": {
      "AcquisitionMatrix": [110, 0, 0, 110],
      "AngioFlag": "N",
      "BitsAllocated": 16,
      "BitsStored": 16,
      "BodyPartExamined": "BRAIN",
      "CardiacNumberOfImages": 1,
      "Columns": 880,
      "EchoNumbers": 1,
      "EchoTime": 76.8,
      "EchoTrainLength": 83,
      "FlipAngle": 78.0,
      "HighBit": 15,
      "ImageOrientationPatient": [1.0, 0.0, 0.0, 0.0, 0.83867056370374, -0.5446390415466],
      "ImagePositionPatient": [-879.49686384201, -764.04251289889, 439.14203673683],
      "ImageType": [
        "ORIGINAL",
        "PRIMARY",
        "DIFFUSION",
        "NONE",
        "MB",
        "ND",
        "MOSAIC"
],
      "ImagedNucleus": "1H",
      "ImagingFrequency": 123.260324,
      "InPlanePhaseEncodingDirection": "COL",
      "LargestImagePixelValue": 4095,
      "MRAcquisitionType": "2D",
      "MagneticFieldStrength": 3.0,
      "Manufacturer": "SIEMENS",
      "ManufacturerModelName": "Prisma_fit",
      "Modality": "MR",
      "NominalInterval": 0,
      "NumberOfAverages": 1.0,
      "NumberOfPhaseEncodingSteps": 83,
      "PercentPhaseFieldOfView": 100.0,
      "PercentSampling": 100.0,
      "PerformedProcedureStepStartTime": "101534.930000",
      "PhotometricInterpretation": "MONOCHROME2",
      "PixelBandwidth": 1685.0,
      "PixelRepresentation": 0,
      "PixelSpacing": [2.0, 2.0],
      "ProtocolName": "dMRI_dir106_AP_test_cmrr",
      "RepetitionTime": 2243.0,
      "RescaleIntercept": -4096.0,
      "RescaleSlope": 2.0,
      "RescaleType": "US",
      "Rows": 880,
      "SAR": 0.14727985530301,
      "SamplesPerPixel": 1,
      "ScanOptions": [
        "PFP",
        "EXT"
],
      "ScanningSequence": "EP",
      "SequenceVariant": [
        "SK",
        "SS"
],
      "SeriesDescription": "dMRI_dir106_AP_test_cmrr",
      "SeriesNumber": 9,
      "SeriesTime": "105112.637000",
      "SliceLocation": -47.831882430057,
      "SliceThickness": 2.0,
      "SmallestImagePixelValue": 0,
      "SoftwareVersions": "syngo MR E11",
      "SpacingBetweenSlices": 1.9999999952563,
      "SpecificCharacterSet": "ISO_IR 100",
      "StudyID": "1",
      "StudyTime": "101534.864000",
      "TransmitCoilName": "Body",
      "VariableFlipAngleFlag": "N",
      "WindowCenterWidthExplanation": "Algo1",
      "dBdt": 0.0},
    "slices": {}
  },
  "time": {
    "samples": {
      "AcquisitionNumber": [1, 2, 3, 4, 5, 6, 7, 8, 9, 10, 11, 12, 13, 14, 15, 16, 17, 18, 19, 20, 21, 22, 23, 24, 25, 26, 27, 28, 29, 30, 31, 32, 33, 34, 35, 36, 37, 38, 39, 40, 41, 42, 43, 44, 45, 46, 47, 48, 49, 50, 51, 52, 53, 54, 55, 56, 57, 58, 59, 60, 61, 62, 63, 64, 65, 66, 67, 68, 69, 70, 71, 72, 73, 74, 75, 76, 77, 78, 79, 80, 81, 82, 83, 84, 85, 86, 87, 88, 89, 90, 91, 92, 93, 94, 95, 96, 97, 98, 99, 100, 101, 102, 103, 104, 105, 106, 107],
      "AcquisitionTime": ["105024.332500", "105026.575000", "105028.820000", "105031.062500", "105033.305000", "105035.547500", "105037.790000", "105040.035000", "105042.277500", "105044.520000", "105046.762500", "105049.005000", "105051.250000", "105053.492500", "105055.735000", "105057.977500", "105100.220000", "105102.465000", "105104.707500", "105106.950000", "105109.192500", "105111.435000", "105113.680000", "105115.922500", "105118.165000", "105120.407500", "105122.650000", "105124.895000", "105127.137500", "105129.380000", "105131.622500", "105133.865000", "105136.110000", "105138.352500", "105140.595000", "105142.837500", "105145.080000", "105147.325000", "105149.567500", "105151.810000", "105154.052500", "105156.295000", "105158.540000", "105200.782500", "105203.025000", "105205.267500", "105207.510000", "105209.755000", "105211.997500", "105214.240000", "105216.482500", "105218.725000", "105220.970000", "105223.212500", "105225.455000", "105227.697500", "105229.940000", "105232.185000", "105234.427500", "105236.670000", "105238.912500", "105241.155000", "105243.400000", "105245.642500", "105247.885000", "105250.127500", "105252.370000", "105254.615000", "105256.857500", "105259.100000", "105301.342500", "105303.585000", "105305.830000", "105308.072500", "105310.315000", "105312.557500", "105314.800000", "105317.045000", "105319.287500", "105321.530000", "105323.772500", "105326.015000", "105328.260000", "105330.502500", "105332.745000", "105334.987500", "105337.230000", "105339.475000", "105341.717500", "105343.960000", "105346.202500", "105348.445000", "105350.690000", "105352.932500", "105355.175000", "105357.417500", "105359.660000", "105401.905000", "105404.147500", "105406.390000", "105408.632500", "105410.875000", "105413.120000", "105415.362500", "105417.605000", "105419.847500", "105422.090000"],
      "ContentTime": ["105112.640000", "105112.643000", "105112.646000", "105112.649000", "105112.653000", "105112.656000", "105112.659000", "105112.662000", "105112.665000", "105112.668000", "105112.672000", "105112.675000", "105112.678000", "105112.681000", "105112.684000", "105112.687000", "105112.691000", "105112.694000", "105112.697000", "105112.700000", "105112.707000", "105212.602000", "105212.605000", "105212.608000", "105212.612000", "105212.615000", "105212.618000", "105212.621000", "105212.624000", "105212.627000", "105212.631000", "105212.634000", "105212.637000", "105212.640000", "105212.643000", "105212.646000", "105212.649000", "105212.652000", "105212.656000", "105212.659000", "105212.662000", "105212.665000", "105212.668000", "105212.671000", "105212.675000", "105212.678000", "105212.681000", "105212.684000", "105312.646000", "105312.649000", "105312.652000", "105312.656000", "105312.659000", "105312.662000", "105312.665000", "105312.668000", "105312.672000", "105312.675000", "105312.678000", "105312.681000", "105312.684000", "105312.687000", "105312.691000", "105312.694000", "105312.697000", "105312.700000", "105312.703000", "105312.706000", "105312.709000", "105312.713000", "105312.716000", "105312.719000", "105312.722000", "105312.725000", "105412.587000", "105412.591000", "105412.594000", "105412.597000", "105412.600000", "105412.603000", "105412.606000", "105412.609000", "105412.612000", "105412.616000", "105412.619000", "105412.622000", "105412.625000", "105412.628000", "105412.631000", "105412.634000", "105412.637000", "105412.641000", "105412.644000", "105412.647000", "105412.650000", "105412.653000", "105412.656000", "105412.659000", "105412.662000", "105412.688000", "105412.691000", "105426.671000", "105426.675000", "105426.678000", "105426.681000", "105426.684000", "105426.688000"],
      "InstanceCreationTime": ["105112.640000", "105112.643000", "105112.646000", "105112.649000", "105112.653000", "105112.656000", "105112.659000", "105112.662000", "105112.665000", "105112.668000", "105112.672000", "105112.675000", "105112.678000", "105112.681000", "105112.684000", "105112.687000", "105112.691000", "105112.694000", "105112.697000", "105112.700000", "105112.707000", "105212.602000", "105212.605000", "105212.608000", "105212.612000", "105212.615000", "105212.618000", "105212.621000", "105212.624000", "105212.627000", "105212.631000", "105212.634000", "105212.637000", "105212.640000", "105212.643000", "105212.646000", "105212.649000", "105212.652000", "105212.656000", "105212.659000", "105212.662000", "105212.665000", "105212.668000", "105212.671000", "105212.675000", "105212.678000", "105212.681000", "105212.684000", "105312.646000", "105312.649000", "105312.652000", "105312.656000", "105312.659000", "105312.662000", "105312.665000", "105312.668000", "105312.672000", "105312.675000", "105312.678000", "105312.681000", "105312.684000", "105312.687000", "105312.691000", "105312.694000", "105312.697000", "105312.700000", "105312.703000", "105312.706000", "105312.709000", "105312.713000", "105312.716000", "105312.719000", "105312.722000", "105312.725000", "105412.587000", "105412.591000", "105412.594000", "105412.597000", "105412.600000", "105412.603000", "105412.606000", "105412.609000", "105412.612000", "105412.616000", "105412.619000", "105412.622000", "105412.625000", "105412.628000", "105412.631000", "105412.634000", "105412.637000", "105412.641000", "105412.644000", "105412.647000", "105412.650000", "105412.653000", "105412.656000", "105412.659000", "105412.662000", "105412.688000", "105412.691000", "105426.671000", "105426.675000", "105426.678000", "105426.681000", "105426.684000", "105426.688000"],
      "InstanceNumber": [1, 2, 3, 4, 5, 6, 7, 8, 9, 10, 11, 12, 13, 14, 15, 16, 17, 18, 19, 20, 21, 22, 23, 24, 25, 26, 27, 28, 29, 30, 31, 32, 33, 34, 35, 36, 37, 38, 39, 40, 41, 42, 43, 44, 45, 46, 47, 48, 49, 50, 51, 52, 53, 54, 55, 56, 57, 58, 59, 60, 61, 62, 63, 64, 65, 66, 67, 68, 69, 70, 71, 72, 73, 74, 75, 76, 77, 78, 79, 80, 81, 82, 83, 84, 85, 86, 87, 88, 89, 90, 91, 92, 93, 94, 95, 96, 97, 98, 99, 100, 101, 102, 103, 104, 105, 106, 107],
      "SequenceName": [
 "ep_b0",
 "ep_b0",
 "ep_b1000#2",
 "ep_b2000#3",
 "ep_b1000#4",
 "ep_b1000#5",
 "ep_b300#6",
 "ep_b2000#7",
 "ep_b2000#8",
 "ep_b2000#9",
 "ep_b1000#10",
 "ep_b300#11",
 "ep_b2000#12",
 "ep_b2000#13",
 "ep_b2000#14",
 "ep_b2000#15",
 "ep_b1000#16",
 "ep_b2000#17",
 "ep_b2000#18",
 "ep_b2000#19",
 "ep_b2000#20",
 "ep_b0",
 "ep_b1000#22",
 "ep_b2000#23",
 "ep_b1000#24",
 "ep_b1000#25",
 "ep_b2000#26",
 "ep_b2000#27",
 "ep_b2000#28",
 "ep_b2000#29",
 "ep_b300#30",
 "ep_b2000#31",
 "ep_b1000#32",
 "ep_b2000#33",
 "ep_b2000#34",
 "ep_b300#35",
 "ep_b2000#36",
 "ep_b2000#37",
 "ep_b1000#38",
 "ep_b2000#39",
 "ep_b2000#40",
 "ep_b0",
 "ep_b2000#42",
 "ep_b2000#43",
 "ep_b2000#44",
 "ep_b300#45",
 "ep_b1000#46",
 "ep_b2000#47",
 "ep_b2000#48",
 "ep_b1000#49",
 "ep_b2000#50",
 "ep_b1000#51",
 "ep_b1000#52",
 "ep_b2000#53",
 "ep_b300#54",
 "ep_b1000#55",
 "ep_b2000#56",
 "ep_b1000#57",
 "ep_b2000#58",
 "ep_b2000#59",
 "ep_b1000#60",
 "ep_b0",
 "ep_b1000#62",
 "ep_b2000#63",
 "ep_b2000#64",
 "ep_b2000#65",
 "ep_b2000#66",
 "ep_b300#67",
 "ep_b1000#68",
 "ep_b1000#69",
 "ep_b2000#70",
 "ep_b2000#71",
 "ep_b2000#72",
 "ep_b2000#73",
 "ep_b1000#74",
 "ep_b2000#75",
 "ep_b2000#76",
 "ep_b2000#77",
 "ep_b1000#78",
 "ep_b1000#79",
 "ep_b2000#80",
 "ep_b0",
 "ep_b1000#82",
 "ep_b2000#83",
 "ep_b2000#84",
 "ep_b1000#85",
 "ep_b1000#86",
 "ep_b2000#87",
 "ep_b1000#88",
 "ep_b2000#89",
 "ep_b2000#90",
 "ep_b2000#91",
 "ep_b1000#92",
 "ep_b2000#93",
 "ep_b2000#94",
 "ep_b2000#95",
 "ep_b300#96",
 "ep_b1000#97",
 "ep_b2000#98",
 "ep_b1000#99",
 "ep_b1000#100",
 "ep_b0",
 "ep_b2000#102",
 "ep_b2000#103",
 "ep_b1000#104",
 "ep_b2000#105",
 "ep_b2000#106"
],
      "TriggerTime": [12837.5, 15080.0, 17322.5, 19567.5, 21810.0, 24052.5, 26295.0, 28537.5, 30782.5, 33025.0, 35267.5, 37510.0, 39752.5, 41997.5, 44240.0, 46482.5, 48725.0, 50967.5, 53212.5, 55455.0, 57697.5, 59940.0, 62182.5, 64427.5, 66670.0, 68912.5, 71155.0, 73397.5, 75642.5, 77885.0, 80127.5, 82370.0, 84612.5, 86857.5, 89100.0, 91342.5, 93585.0, 95827.5, 98072.5, 100315.0, 102557.5, 104800.0, 107042.5, 109287.5, 111530.0, 113772.5, 116015.0, 118257.5, 120502.5, 122745.0, 124987.5, 127230.0, 129472.5, 131717.5, 133960.0, 136202.5, 138445.0, 140687.5, 142932.5, 145175.0, 147417.5, 149660.0, 151902.5, 154147.5, 156390.0, 158632.5, 160875.0, 163117.5, 165362.5, 167605.0, 169847.5, 172090.0, 174332.5, 176577.5, 178820.0, 181062.5, 183305.0, 185547.5, 187792.5, 190035.0, 192277.5, 194520.0, 196762.5, 199007.5, 201250.0, 203492.5, 205735.0, 207977.5, 210222.5, 212465.0, 214707.5, 216950.0, 219192.5, 221437.5, 223680.0, 225922.5, 228165.0, 230407.5, 232652.5, 234895.0, 237137.5, 239380.0, 241622.5, 243867.5, 246110.0, 248352.5, 250595.0],
      "WindowCenter": [4776.0, 4752.0, 4500.0, 4542.0, 4834.0, 4936.0, 4742.0, 4690.0, 5010.0, 4732.0, 4916.0, 4676.0, 5106.0, 5172.0, 4972.0, 4672.0, 5030.0, 4902.0, 4324.0, 5020.0, 4692.0, 4778.0, 5040.0, 4846.0, 4782.0, 4992.0, 5078.0, 4892.0, 5090.0, 4842.0, 4778.0, 4994.0, 4932.0, 5070.0, 4852.0, 4800.0, 5126.0, 4876.0, 5064.0, 4648.0, 5042.0, 4696.0, 4716.0, 4824.0, 5122.0, 4856.0, 4696.0, 5042.0, 4532.0, 4774.0, 5130.0, 5144.0, 4566.0, 4862.0, 4782.0, 4826.0, 5082.0, 4418.0, 4978.0, 4590.0, 4966.0, 4942.0, 4628.0, 5080.0, 4232.0, 5090.0, 4802.0, 4646.0, 4734.0, 5116.0, 4750.0, 4404.0, 4780.0, 4330.0, 5056.0, 4314.0, 4272.0, 5120.0, 4896.0, 4996.0, 4694.0, 4778.0, 5064.0, 4956.0, 5144.0, 4624.0, 4918.0, 5108.0, 5098.0, 4450.0, 4210.0, 5010.0, 4570.0, 5080.0, 4530.0, 5050.0, 4836.0, 4410.0, 4968.0, 5020.0, 4720.0, 4720.0, 5012.0, 5144.0, 4822.0, 4932.0, 4428.0],
      "WindowWidth": [18252.0, 18226.0, 18102.0, 18268.0, 18510.0, 18610.0, 18270.0, 18432.0, 18940.0, 18460.0, 18646.0, 18260.0, 18970.0, 19112.0, 18848.0, 18432.0, 18806.0, 18720.0, 18024.0, 19078.0, 18524.0, 18256.0, 18912.0, 18744.0, 18522.0, 18666.0, 19116.0, 18582.0, 19042.0, 18640.0, 18304.0, 18882.0, 18724.0, 18956.0, 18654.0, 18382.0, 19218.0, 18670.0, 18752.0, 18390.0, 18796.0, 18198.0, 18512.0, 18632.0, 19188.0, 18408.0, 18454.0, 18930.0, 18196.0, 18508.0, 19244.0, 19034.0, 18188.0, 18736.0, 18388.0, 18554.0, 19050.0, 18094.0, 18908.0, 18322.0, 18528.0, 18330.0, 18248.0, 19066.0, 17886.0, 19162.0, 18640.0, 18220.0, 18420.0, 18892.0, 18464.0, 18128.0, 18620.0, 18012.0, 18832.0, 17972.0, 17990.0, 19040.0, 18608.0, 18762.0, 18474.0, 18252.0, 18850.0, 18910.0, 19134.0, 18302.0, 18650.0, 19010.0, 18902.0, 18234.0, 17948.0, 18806.0, 18266.0, 19206.0, 18172.0, 19062.0, 18348.0, 18020.0, 18836.0, 18788.0, 18364.0, 18220.0, 18822.0, 19286.0, 18442.0, 18810.0, 18136.0]
    },
    "slices": {}
  }
}