{
  "AcquisitionMatrixPE": 110,
  "AcquisitionNumber": 1,
  "AcquisitionTime": "10:50:24.332500",
  "BandwidthPerPixelPhaseEncode": 12.987,
  "BaseResolution": 110,
  "BodyPartExamined": "BRAIN",
  "CoilCombinationMethod": "Sum of Squares",
  "ConsistencyInfo": "N4_VE11C_LATEST_20160120",
  "ConversionSoftware": "dcm2niix",
  "ConversionSoftwareVersion": "v1.0.20220505",
  "DerivedVendorReportedEchoSpacing": 0.000700001,
  "DeviceSerialNumber": "167006",
  "DiffusionScheme": "Monopolar",
  "DwellTime": 2.7e-06,
  "EchoTime": 0.0768,
  "EchoTrainLength": 83,
  "EffectiveEchoSpacing": 0.000700001,
  "FlipAngle": 78,
  "HeudiconvVersion": "0.5.3.post811+g6206e14",
  "ImageComments": "Unaliased MB3/PE3/LB SENSE1+",
  "ImageOrientationPatientDICOM": [1, 0, 0, 0, 0.838671, -0.544639],
  "ImageOrientationText": "Tra>Cor(-33.0)",
  "ImageType": [
    "ORIGINAL",
    "PRIMARY",
    "DIFFUSION",
    "NONE",
    "MB",
    "ND",
    "MOSAIC"
],
  "ImagingFrequency": 123.26,
  "InPlanePhaseEncodingDirectionDICOM": "COL",
  "InstitutionAddress": "Chemin Queen-Mary 4565,Montreal,District,CA,H3W 1W5",
  "InstitutionName": "IUGM",
  "InstitutionalDepartmentName": "Department",
  "MRAcquisitionType": "2D",
  "MagneticFieldStrength": 3,
  "Manufacturer": "Siemens",
  "ManufacturersModelName": "Prisma_fit",
  "MatrixCoilMode": "SENSE",
  "Modality": "MR",
  "MultibandAccelerationFactor": 3,
  "PartialFourier": 0.75,
  "PatientPosition": "HFS",
  "PercentPhaseFOV": 100,
  "PercentSampling": 100,
  "PhaseEncodingDirection": "j-",
  "PhaseEncodingSteps": 83,
  "PhaseResolution": 1,
  "PixelBandwidth": 1685,
  "ProcedureStepDescription": "anat^generic",
  "ProtocolName": "dMRI_dir106_AP_test_cmrr",
  "PulseSequenceDetails": "%CustomerSeq%\\cmrr_mbep2d_diff",
  "ReceiveCoilActiveElements": "HC1-7",
  "ReceiveCoilName": "HeadNeck_64",
  "ReconMatrixPE": 110,
  "RepetitionTime": 2.243,
  "SAR": 0.14728,
  "ScanOptions": "PFP\\EXT",
  "ScanningSequence": "EP",
  "SequenceName": "ep_b0",
  "SequenceVariant": "SK\\SS",
  "SeriesDescription": "dMRI_dir106_AP_test_cmrr",
  "SeriesNumber": 8,
  "ShimSetting": [607, -7216, -8855, 384, 10, -293, -5, 23],
  "SliceThickness": 2,
  "SliceTiming": [0, 1.17, 0.1175, 1.2875, 0.235, 1.405, 0.3525, 1.52, 0.4675, 1.6375, 0.585, 1.755, 0.7025, 1.8725, 0.82, 1.99, 0.935, 2.105, 1.0525, 0, 1.17, 0.1175, 1.2875, 0.235, 1.405, 0.3525, 1.52, 0.4675, 1.6375, 0.585, 1.755, 0.7025, 1.8725, 0.82, 1.99, 0.935, 2.105, 1.0525, 0, 1.17, 0.1175, 1.2875, 0.235, 1.405, 0.3525, 1.52, 0.4675, 1.6375, 0.585, 1.755, 0.7025, 1.8725, 0.82, 1.99, 0.935, 2.105, 1.0525],
  "SoftwareVersions": "syngo MR E11",
  "SpacingBetweenSlices": 2,
  "StationName": "MRC35049",
  "TotalReadoutTime": 0.0763001,
  "TxRefAmp": 252.054,
  "WipMemBlock": "51070a6c-2d9d-4d7b-87a9-8a53c07183d8||Sequence: R017 ve11c/master r/75a17815+; Jun 28 2022 16:41:33 by eja",
  "dcmmeta_affine": [
    [-2.0, 0.0, 0.0, 109.49686431884766],
    [0.0, 1.677341103553772, -1.0892781019210815, -64.56400299072266],
    [0.0, 1.0892781019210815, 1.677341103553772, -98.96133422851562],
    [0.0, 0.0, 0.0, 1.0]
],
  "dcmmeta_reorient_transform": [
    [0.0, -1.0, 0.0, 109.0],
    [1.0, 0.0, 0.0, 0.0],
    [0.0, 0.0, 1.0, 0.0],
    [0.0, 0.0, 0.0, 1.0]
],
  "dcmmeta_shape": [110, 110, 57, 107],
  "dcmmeta_slice_dim": 2,
  "dcmmeta_version": 0.6,
  "global": {
    "const": {
      "AcquisitionMatrix": [110, 0, 0, 110],
      "AngioFlag": "N",
      "BitsAllocated": 16,
      "BitsStored": 16,
      "BodyPartExamined": "BRAIN",
      "CardiacNumberOfImages": 1,
      "Columns": 880,
      "EchoNumbers": 1,
      "EchoTime": 76.8,
      "EchoTrainLength": 83,
      "FlipAngle": 78.0,
      "HighBit": 15,
      "ImageOrientationPatient": [1.0, 0.0, 0.0, 0.0, 0.83867056370374, -0.5446390415466],
      "ImagePositionPatient": [-879.49686384201, -764.04251289889, 439.14203673683],
      "ImageType": [
        "ORIGINAL",
        "PRIMARY",
        "DIFFUSION",
        "NONE",
        "MB",
        "ND",
        "MOSAIC"
],
      "ImagedNucleus": "1H",
      "ImagingFrequency": 123.260324,
      "InPlanePhaseEncodingDirection": "COL",
      "MRAcquisitionType": "2D",
      "MagneticFieldStrength": 3.0,
      "Manufacturer": "SIEMENS",
      "ManufacturerModelName": "Prisma_fit",
      "Modality": "MR",
      "NominalInterval": 0,
      "NumberOfAverages": 1.0,
      "NumberOfPhaseEncodingSteps": 83,
      "PercentPhaseFieldOfView": 100.0,
      "PercentSampling": 100.0,
      "PerformedProcedureStepStartTime": "101534.930000",
      "PhotometricInterpretation": "MONOCHROME2",
      "PixelBandwidth": 1685.0,
      "PixelRepresentation": 0,
      "PixelSpacing": [2.0, 2.0],
      "ProtocolName": "dMRI_dir106_AP_test_cmrr",
      "RepetitionTime": 2243.0,
      "Rows": 880,
      "SAR": 0.14727985530301,
      "SamplesPerPixel": 1,
      "ScanOptions": [
        "PFP",
        "EXT"
],
      "ScanningSequence": "EP",
      "SequenceVariant": [
        "SK",
        "SS"
],
      "SeriesDescription": "dMRI_dir106_AP_test_cmrr",
      "SeriesNumber": 8,
      "SeriesTime": "105112.511000",
      "SliceLocation": -47.831882430057,
      "SliceThickness": 2.0,
      "SmallestImagePixelValue": 0,
      "SoftwareVersions": "syngo MR E11",
      "SpacingBetweenSlices": 1.9999999952563,
      "SpecificCharacterSet": "ISO_IR 100",
      "StudyID": "1",
      "StudyTime": "101534.864000",
      "TransmitCoilName": "Body",
      "VariableFlipAngleFlag": "N",
      "WindowCenterWidthExplanation": "Algo1",
      "dBdt": 0.0},
    "slices": {}
  },
  "time": {
    "samples": {
      "AcquisitionNumber": [1, 2, 3, 4, 5, 6, 7, 8, 9, 10, 11, 12, 13, 14, 15, 16, 17, 18, 19, 20, 21, 22, 23, 24, 25, 26, 27, 28, 29, 30, 31, 32, 33, 34, 35, 36, 37, 38, 39, 40, 41, 42, 43, 44, 45, 46, 47, 48, 49, 50, 51, 52, 53, 54, 55, 56, 57, 58, 59, 60, 61, 62, 63, 64, 65, 66, 67, 68, 69, 70, 71, 72, 73, 74, 75, 76, 77, 78, 79, 80, 81, 82, 83, 84, 85, 86, 87, 88, 89, 90, 91, 92, 93, 94, 95, 96, 97, 98, 99, 100, 101, 102, 103, 104, 105, 106, 107],
      "AcquisitionTime": ["105024.332500", "105026.575000", "105028.820000", "105031.062500", "105033.305000", "105035.547500", "105037.790000", "105040.035000", "105042.277500", "105044.520000", "105046.762500", "105049.005000", "105051.250000", "105053.492500", "105055.735000", "105057.977500", "105100.220000", "105102.465000", "105104.707500", "105106.950000", "105109.192500", "105111.435000", "105113.680000", "105115.922500", "105118.165000", "105120.407500", "105122.650000", "105124.895000", "105127.137500", "105129.380000", "105131.622500", "105133.865000", "105136.110000", "105138.352500", "105140.595000", "105142.837500", "105145.080000", "105147.325000", "105149.567500", "105151.810000", "105154.052500", "105156.295000", "105158.540000", "105200.782500", "105203.025000", "105205.267500", "105207.510000", "105209.755000", "105211.997500", "105214.240000", "105216.482500", "105218.725000", "105220.970000", "105223.212500", "105225.455000", "105227.697500", "105229.940000", "105232.185000", "105234.427500", "105236.670000", "105238.912500", "105241.155000", "105243.400000", "105245.642500", "105247.885000", "105250.127500", "105252.370000", "105254.615000", "105256.857500", "105259.100000", "105301.342500", "105303.585000", "105305.830000", "105308.072500", "105310.315000", "105312.557500", "105314.800000", "105317.045000", "105319.287500", "105321.530000", "105323.772500", "105326.015000", "105328.260000", "105330.502500", "105332.745000", "105334.987500", "105337.230000", "105339.475000", "105341.717500", "105343.960000", "105346.202500", "105348.445000", "105350.690000", "105352.932500", "105355.175000", "105357.417500", "105359.660000", "105401.905000", "105404.147500", "105406.390000", "105408.632500", "105410.875000", "105413.120000", "105415.362500", "105417.605000", "105419.847500", "105422.090000"],
      "ContentTime": ["105112.513000", "105112.517000", "105112.520000", "105112.523000", "105112.526000", "105112.529000", "105112.532000", "105112.535000", "105112.538000", "105112.541000", "105112.545000", "105112.570000", "105112.573000", "105112.576000", "105112.583000", "105112.586000", "105112.589000", "105112.592000", "105112.596000", "105112.599000", "105112.602000", "105212.471000", "105212.474000", "105212.477000", "105212.480000", "105212.483000", "105212.486000", "105212.490000", "105212.499000", "105212.503000", "105212.506000", "105212.509000", "105212.512000", "105212.515000", "105212.518000", "105212.521000", "105212.524000", "105212.527000", "105212.530000", "105212.534000", "105212.537000", "105212.539000", "105212.542000", "105212.546000", "105212.549000", "105212.552000", "105212.555000", "105212.558000", "105312.471000", "105312.474000", "105312.487000", "105312.490000", "105312.493000", "105312.496000", "105312.499000", "105312.502000", "105312.506000", "105312.509000", "105312.512000", "105312.515000", "105312.518000", "105312.521000", "105312.524000", "105312.527000", "105312.531000", "105312.534000", "105312.537000", "105312.540000", "105312.543000", "105312.546000", "105312.549000", "105312.552000", "105312.555000", "105312.558000", "105412.471000", "105412.474000", "105412.477000", "105412.480000", "105412.484000", "105412.487000", "105412.490000", "105412.493000", "105412.496000", "105412.499000", "105412.502000", "105412.505000", "105412.509000", "105412.512000", "105412.515000", "105412.518000", "105412.521000", "105412.524000", "105412.527000", "105412.530000", "105412.540000", "105412.543000", "105412.546000", "105412.549000", "105412.552000", "105412.555000", "105412.559000", "105426.619000", "105426.622000", "105426.625000", "105426.628000", "105426.635000", "105426.638000"],
      "InstanceCreationTime": ["105112.513000", "105112.517000", "105112.520000", "105112.523000", "105112.526000", "105112.529000", "105112.532000", "105112.535000", "105112.538000", "105112.541000", "105112.545000", "105112.570000", "105112.573000", "105112.576000", "105112.583000", "105112.586000", "105112.589000", "105112.592000", "105112.596000", "105112.599000", "105112.602000", "105212.471000", "105212.474000", "105212.477000", "105212.480000", "105212.483000", "105212.486000", "105212.490000", "105212.499000", "105212.503000", "105212.506000", "105212.509000", "105212.512000", "105212.515000", "105212.518000", "105212.521000", "105212.524000", "105212.527000", "105212.530000", "105212.534000", "105212.537000", "105212.539000", "105212.542000", "105212.546000", "105212.549000", "105212.552000", "105212.555000", "105212.558000", "105312.471000", "105312.474000", "105312.487000", "105312.490000", "105312.493000", "105312.496000", "105312.499000", "105312.502000", "105312.506000", "105312.509000", "105312.512000", "105312.515000", "105312.518000", "105312.521000", "105312.524000", "105312.527000", "105312.531000", "105312.534000", "105312.537000", "105312.540000", "105312.543000", "105312.546000", "105312.549000", "105312.552000", "105312.555000", "105312.558000", "105412.471000", "105412.474000", "105412.477000", "105412.480000", "105412.484000", "105412.487000", "105412.490000", "105412.493000", "105412.496000", "105412.499000", "105412.502000", "105412.505000", "105412.509000", "105412.512000", "105412.515000", "105412.518000", "105412.521000", "105412.524000", "105412.527000", "105412.530000", "105412.540000", "105412.543000", "105412.546000", "105412.549000", "105412.552000", "105412.555000", "105412.559000", "105426.619000", "105426.622000", "105426.625000", "105426.628000", "105426.635000", "105426.638000"],
      "InstanceNumber": [1, 2, 3, 4, 5, 6, 7, 8, 9, 10, 11, 12, 13, 14, 15, 16, 17, 18, 19, 20, 21, 22, 23, 24, 25, 26, 27, 28, 29, 30, 31, 32, 33, 34, 35, 36, 37, 38, 39, 40, 41, 42, 43, 44, 45, 46, 47, 48, 49, 50, 51, 52, 53, 54, 55, 56, 57, 58, 59, 60, 61, 62, 63, 64, 65, 66, 67, 68, 69, 70, 71, 72, 73, 74, 75, 76, 77, 78, 79, 80, 81, 82, 83, 84, 85, 86, 87, 88, 89, 90, 91, 92, 93, 94, 95, 96, 97, 98, 99, 100, 101, 102, 103, 104, 105, 106, 107],
      "LargestImagePixelValue": [52403, 50941, 12436, 7460, 13645, 12682, 22010, 7928, 6955, 6456, 13353, 23480, 7873, 7128, 6599, 7582, 13671, 7032, 6475, 8049, 7777, 48974, 13314, 6885, 12385, 12617, 7084, 6566, 8061, 7597, 22763, 7155, 12782, 7901, 6820, 23639, 7123, 8370, 12750, 6612, 7072, 49416, 6668, 6403, 7742, 23768, 12370, 7211, 6123, 12385, 8021, 13933, 12925, 6790, 23956, 13250, 8049, 11855, 7301, 6363, 12386, 49216, 13271, 7523, 6335, 8136, 7253, 23740, 12819, 14025, 6976, 7031, 6756, 6928, 13058, 6604, 6351, 7504, 12906, 13801, 8129, 48304, 13912, 7462, 7480, 13217, 12337, 7624, 13469, 6935, 6386, 7467, 12149, 7808, 6405, 6884, 22863, 12925, 7712, 12585, 13357, 50511, 6821, 8205, 12342, 7483, 6822],
      "SequenceName": [
 "ep_b0",
 "ep_b0",
 "ep_b1000#2",
 "ep_b2000#3",
 "ep_b1000#4",
 "ep_b1000#5",
 "ep_b300#6",
 "ep_b2000#7",
 "ep_b2000#8",
 "ep_b2000#9",
 "ep_b1000#10",
 "ep_b300#11",
 "ep_b2000#12",
 "ep_b2000#13",
 "ep_b2000#14",
 "ep_b2000#15",
 "ep_b1000#16",
 "ep_b2000#17",
 "ep_b2000#18",
 "ep_b2000#19",
 "ep_b2000#20",
 "ep_b0",
 "ep_b1000#22",
 "ep_b2000#23",
 "ep_b1000#24",
 "ep_b1000#25",
 "ep_b2000#26",
 "ep_b2000#27",
 "ep_b2000#28",
 "ep_b2000#29",
 "ep_b300#30",
 "ep_b2000#31",
 "ep_b1000#32",
 "ep_b2000#33",
 "ep_b2000#34",
 "ep_b300#35",
 "ep_b2000#36",
 "ep_b2000#37",
 "ep_b1000#38",
 "ep_b2000#39",
 "ep_b2000#40",
 "ep_b0",
 "ep_b2000#42",
 "ep_b2000#43",
 "ep_b2000#44",
 "ep_b300#45",
 "ep_b1000#46",
 "ep_b2000#47",
 "ep_b2000#48",
 "ep_b1000#49",
 "ep_b2000#50",
 "ep_b1000#51",
 "ep_b1000#52",
 "ep_b2000#53",
 "ep_b300#54",
 "ep_b1000#55",
 "ep_b2000#56",
 "ep_b1000#57",
 "ep_b2000#58",
 "ep_b2000#59",
 "ep_b1000#60",
 "ep_b0",
 "ep_b1000#62",
 "ep_b2000#63",
 "ep_b2000#64",
 "ep_b2000#65",
 "ep_b2000#66",
 "ep_b300#67",
 "ep_b1000#68",
 "ep_b1000#69",
 "ep_b2000#70",
 "ep_b2000#71",
 "ep_b2000#72",
 "ep_b2000#73",
 "ep_b1000#74",
 "ep_b2000#75",
 "ep_b2000#76",
 "ep_b2000#77",
 "ep_b1000#78",
 "ep_b1000#79",
 "ep_b2000#80",
 "ep_b0",
 "ep_b1000#82",
 "ep_b2000#83",
 "ep_b2000#84",
 "ep_b1000#85",
 "ep_b1000#86",
 "ep_b2000#87",
 "ep_b1000#88",
 "ep_b2000#89",
 "ep_b2000#90",
 "ep_b2000#91",
 "ep_b1000#92",
 "ep_b2000#93",
 "ep_b2000#94",
 "ep_b2000#95",
 "ep_b300#96",
 "ep_b1000#97",
 "ep_b2000#98",
 "ep_b1000#99",
 "ep_b1000#100",
 "ep_b0",
 "ep_b2000#102",
 "ep_b2000#103",
 "ep_b1000#104",
 "ep_b2000#105",
 "ep_b2000#106"
],
      "TriggerTime": [12837.5, 15080.0, 17322.5, 19567.5, 21810.0, 24052.5, 26295.0, 28537.5, 30782.5, 33025.0, 35267.5, 37510.0, 39752.5, 41997.5, 44240.0, 46482.5, 48725.0, 50967.5, 53212.5, 55455.0, 57697.5, 59940.0, 62182.5, 64427.5, 66670.0, 68912.5, 71155.0, 73397.5, 75642.5, 77885.0, 80127.5, 82370.0, 84612.5, 86857.5, 89100.0, 91342.5, 93585.0, 95827.5, 98072.5, 100315.0, 102557.5, 104800.0, 107042.5, 109287.5, 111530.0, 113772.5, 116015.0, 118257.5, 120502.5, 122745.0, 124987.5, 127230.0, 129472.5, 131717.5, 133960.0, 136202.5, 138445.0, 140687.5, 142932.5, 145175.0, 147417.5, 149660.0, 151902.5, 154147.5, 156390.0, 158632.5, 160875.0, 163117.5, 165362.5, 167605.0, 169847.5, 172090.0, 174332.5, 176577.5, 178820.0, 181062.5, 183305.0, 185547.5, 187792.5, 190035.0, 192277.5, 194520.0, 196762.5, 199007.5, 201250.0, 203492.5, 205735.0, 207977.5, 210222.5, 212465.0, 214707.5, 216950.0, 219192.5, 221437.5, 223680.0, 225922.5, 228165.0, 230407.5, 232652.5, 234895.0, 237137.5, 239380.0, 241622.5, 243867.5, 246110.0, 248352.5, 250595.0],
      "WindowCenter": [7607.0, 7621.0, 3459.0, 2230.0, 3480.0, 3431.0, 5489.0, 2222.0, 2185.0, 2154.0, 3488.0, 5498.0, 2219.0, 2161.0, 2163.0, 2225.0, 3470.0, 2212.0, 2195.0, 2250.0, 2209.0, 7518.0, 3474.0, 2209.0, 3473.0, 3418.0, 2202.0, 2159.0, 2231.0, 2188.0, 5501.0, 2168.0, 3434.0, 2226.0, 2180.0, 5503.0, 2194.0, 2220.0, 3416.0, 2179.0, 2160.0, 7425.0, 2184.0, 2123.0, 2220.0, 5463.0, 3447.0, 2176.0, 2151.0, 3451.0, 2221.0, 3470.0, 3454.0, 2188.0, 5461.0, 3444.0, 2252.0, 3457.0, 2202.0, 2170.0, 3413.0, 7471.0, 3447.0, 2191.0, 2203.0, 2192.0, 2190.0, 5478.0, 3416.0, 3454.0, 2172.0, 2186.0, 2177.0, 2214.0, 3430.0, 2183.0, 2174.0, 2184.0, 3426.0, 3479.0, 2225.0, 7494.0, 3459.0, 2187.0, 2181.0, 3437.0, 3434.0, 2191.0, 3448.0, 2194.0, 2182.0, 2187.0, 3456.0, 2203.0, 2171.0, 2197.0, 5439.0, 3452.0, 2231.0, 3417.0, 3439.0, 7506.0, 2138.0, 2195.0, 3401.0, 2180.0, 2185.0],
      "WindowWidth": [16595.0, 16625.0, 8019.0, 5501.0, 8052.0, 7955.0, 12053.0, 5469.0, 5417.0, 5343.0, 8068.0, 12071.0, 5455.0, 5344.0, 5359.0, 5483.0, 8025.0, 5462.0, 5425.0, 5531.0, 5445.0, 16364.0, 8042.0, 5444.0, 8043.0, 7936.0, 5453.0, 5337.0, 5481.0, 5401.0, 12066.0, 5376.0, 7960.0, 5484.0, 5391.0, 12075.0, 5410.0, 5464.0, 7926.0, 5388.0, 5335.0, 16190.0, 5404.0, 5284.0, 5463.0, 11999.0, 7990.0, 5373.0, 5330.0, 8001.0, 5468.0, 8027.0, 7997.0, 5424.0, 11990.0, 7981.0, 5537.0, 8009.0, 5416.0, 5381.0, 7918.0, 16290.0, 7991.0, 5404.0, 5454.0, 5408.0, 5398.0, 12027.0, 7937.0, 7983.0, 5359.0, 5413.0, 5381.0, 5465.0, 7952.0, 5405.0, 5394.0, 5404.0, 7958.0, 8050.0, 5482.0, 16327.0, 8006.0, 5388.0, 5392.0, 7973.0, 7974.0, 5402.0, 7984.0, 5416.0, 5402.0, 5390.0, 8002.0, 5428.0, 5378.0, 5430.0, 11948.0, 8005.0, 5503.0, 7929.0, 7975.0, 16343.0, 5308.0, 5394.0, 7896.0, 5398.0, 5408.0]
    },
    "slices": {}
  }
}