{
  "AcquisitionMatrixPE": 110,
  "AcquisitionNumber": 1,
  "AcquisitionTime": "10:54:41.232500",
  "BandwidthPerPixelPhaseEncode": 12.987,
  "BaseResolution": 110,
  "BodyPartExamined": "BRAIN",
  "CoilCombinationMethod": "Sum of Squares",
  "ConsistencyInfo": "N4_VE11C_LATEST_20160120",
  "ConversionSoftware": "dcm2niix",
  "ConversionSoftwareVersion": "v1.0.20220505",
  "DerivedVendorReportedEchoSpacing": 0.000700001,
  "DeviceSerialNumber": "167006",
  "DiffusionScheme": "Monopolar",
  "DwellTime": 2.7e-06,
  "EchoTime": 0.0768,
  "EchoTrainLength": 83,
  "EffectiveEchoSpacing": 0.000700001,
  "FlipAngle": 78,
  "HeudiconvVersion": "0.5.3.post811+g6206e14",
  "ImageComments": "Unaliased MB3/PE3/LB SENSE1+",
  "ImageOrientationPatientDICOM": [1, 0, 0, 0, 0.838671, -0.544639],
  "ImageOrientationText": "Tra>Cor(-33.0)",
  "ImageType": [
    "ORIGINAL",
    "PRIMARY",
    "DIFFUSION",
    "NONE",
    "MB",
    "ND",
    "MOSAIC"
],
  "ImagingFrequency": 123.26,
  "InPlanePhaseEncodingDirectionDICOM": "COL",
  "InstitutionAddress": "Chemin Queen-Mary 4565,Montreal,District,CA,H3W 1W5",
  "InstitutionName": "IUGM",
  "InstitutionalDepartmentName": "Department",
  "MRAcquisitionType": "2D",
  "MagneticFieldStrength": 3,
  "Manufacturer": "Siemens",
  "ManufacturersModelName": "Prisma_fit",
  "MatrixCoilMode": "SENSE",
  "Modality": "MR",
  "MultibandAccelerationFactor": 3,
  "PartialFourier": 0.75,
  "PatientPosition": "HFS",
  "PercentPhaseFOV": 100,
  "PercentSampling": 100,
  "PhaseEncodingDirection": "j",
  "PhaseEncodingSteps": 83,
  "PhaseResolution": 1,
  "PixelBandwidth": 1685,
  "ProcedureStepDescription": "anat^generic",
  "ProtocolName": "dMRI_dir106_PA_test_cmrr",
  "PulseSequenceDetails": "%CustomerSeq%\\cmrr_mbep2d_diff",
  "ReceiveCoilActiveElements": "HC1-7",
  "ReceiveCoilName": "HeadNeck_64",
  "ReconMatrixPE": 110,
  "RepetitionTime": 2.243,
  "SAR": 0.14728,
  "ScanOptions": "PFP\\EXT",
  "ScanningSequence": "EP",
  "SequenceName": "ep_b0",
  "SequenceVariant": "SK\\SS",
  "SeriesDescription": "dMRI_dir106_PA_test_cmrr",
  "SeriesNumber": 13,
  "ShimSetting": [607, -7216, -8855, 384, 10, -293, -5, 23],
  "SliceThickness": 2,
  "SliceTiming": [0, 1.1675, 0.115, 1.285, 0.2325, 1.4025, 0.35, 1.52, 0.4675, 1.6375, 0.5825, 1.7525, 0.7, 1.87, 0.8175, 1.9875, 0.935, 2.105, 1.0525, 0, 1.1675, 0.115, 1.285, 0.2325, 1.4025, 0.35, 1.52, 0.4675, 1.6375, 0.5825, 1.7525, 0.7, 1.87, 0.8175, 1.9875, 0.935, 2.105, 1.0525, 0, 1.1675, 0.115, 1.285, 0.2325, 1.4025, 0.35, 1.52, 0.4675, 1.6375, 0.5825, 1.7525, 0.7, 1.87, 0.8175, 1.9875, 0.935, 2.105, 1.0525],
  "SoftwareVersions": "syngo MR E11",
  "SpacingBetweenSlices": 2,
  "StationName": "MRC35049",
  "TotalReadoutTime": 0.0763001,
  "TxRefAmp": 252.054,
  "WipMemBlock": "62092e5b-23e3-47da-b9a7-16184766510a||Sequence: R017 ve11c/master r/75a17815+; Jun 28 2022 16:41:33 by eja",
  "dcmmeta_affine": [
    [-2.0, 0.0, 0.0, 109.49686431884766],
    [0.0, 1.677341103553772, -1.0892781019210815, -64.56400299072266],
    [0.0, 1.0892781019210815, 1.677341103553772, -98.96133422851562],
    [0.0, 0.0, 0.0, 1.0]
],
  "dcmmeta_reorient_transform": [
    [0.0, -1.0, 0.0, 109.0],
    [1.0, 0.0, 0.0, 0.0],
    [0.0, 0.0, 1.0, 0.0],
    [0.0, 0.0, 0.0, 1.0]
],
  "dcmmeta_shape": [110, 110, 57, 107],
  "dcmmeta_slice_dim": 2,
  "dcmmeta_version": 0.6,
  "global": {
    "const": {
      "AcquisitionMatrix": [110, 0, 0, 110],
      "AngioFlag": "N",
      "BitsAllocated": 16,
      "BitsStored": 16,
      "BodyPartExamined": "BRAIN",
      "CardiacNumberOfImages": 1,
      "Columns": 880,
      "EchoNumbers": 1,
      "EchoTime": 76.8,
      "EchoTrainLength": 83,
      "FlipAngle": 78.0,
      "HighBit": 15,
      "ImageOrientationPatient": [1.0, 0.0, 0.0, 0.0, 0.83867056370374, -0.5446390415466],
      "ImagePositionPatient": [-879.49686384201, -764.04251289889, 439.14203673683],
      "ImageType": [
        "ORIGINAL",
        "PRIMARY",
        "DIFFUSION",
        "NONE",
        "MB",
        "ND",
        "MOSAIC"
],
      "ImagedNucleus": "1H",
      "ImagingFrequency": 123.260326,
      "InPlanePhaseEncodingDirection": "COL",
      "MRAcquisitionType": "2D",
      "MagneticFieldStrength": 3.0,
      "Manufacturer": "SIEMENS",
      "ManufacturerModelName": "Prisma_fit",
      "Modality": "MR",
      "NominalInterval": 0,
      "NumberOfAverages": 1.0,
      "NumberOfPhaseEncodingSteps": 83,
      "PercentPhaseFieldOfView": 100.0,
      "PercentSampling": 100.0,
      "PerformedProcedureStepStartTime": "101534.930000",
      "PhotometricInterpretation": "MONOCHROME2",
      "PixelBandwidth": 1685.0,
      "PixelRepresentation": 0,
      "PixelSpacing": [2.0, 2.0],
      "ProtocolName": "dMRI_dir106_PA_test_cmrr",
      "RepetitionTime": 2243.0,
      "Rows": 880,
      "SAR": 0.14727985530301,
      "SamplesPerPixel": 1,
      "ScanOptions": [
        "PFP",
        "EXT"
],
      "ScanningSequence": "EP",
      "SequenceVariant": [
        "SK",
        "SS"
],
      "SeriesDescription": "dMRI_dir106_PA_test_cmrr",
      "SeriesNumber": 13,
      "SeriesTime": "105532.579000",
      "SliceLocation": -47.831882430057,
      "SliceThickness": 2.0,
      "SmallestImagePixelValue": 0,
      "SoftwareVersions": "syngo MR E11",
      "SpacingBetweenSlices": 1.9999999952563,
      "SpecificCharacterSet": "ISO_IR 100",
      "StudyID": "1",
      "StudyTime": "101534.864000",
      "TransmitCoilName": "Body",
      "VariableFlipAngleFlag": "N",
      "WindowCenterWidthExplanation": "Algo1",
      "dBdt": 0.0},
    "slices": {}
  },
  "time": {
    "samples": {
      "AcquisitionNumber": [1, 2, 3, 4, 5, 6, 7, 8, 9, 10, 11, 12, 13, 14, 15, 16, 17, 18, 19, 20, 21, 22, 23, 24, 25, 26, 27, 28, 29, 30, 31, 32, 33, 34, 35, 36, 37, 38, 39, 40, 41, 42, 43, 44, 45, 46, 47, 48, 49, 50, 51, 52, 53, 54, 55, 56, 57, 58, 59, 60, 61, 62, 63, 64, 65, 66, 67, 68, 69, 70, 71, 72, 73, 74, 75, 76, 77, 78, 79, 80, 81, 82, 83, 84, 85, 86, 87, 88, 89, 90, 91, 92, 93, 94, 95, 96, 97, 98, 99, 100, 101, 102, 103, 104, 105, 106, 107],
      "AcquisitionTime": ["105441.232500", "105443.475000", "105445.717500", "105447.960000", "105450.202500", "105452.447500", "105454.690000", "105456.932500", "105459.175000", "105501.417500", "105503.662500", "105505.905000", "105508.147500", "105510.390000", "105512.632500", "105514.877500", "105517.120000", "105519.362500", "105521.605000", "105523.847500", "105526.092500", "105528.335000", "105530.577500", "105532.820000", "105535.062500", "105537.307500", "105539.550000", "105541.792500", "105544.035000", "105546.277500", "105548.522500", "105550.765000", "105553.007500", "105555.250000", "105557.492500", "105559.737500", "105601.980000", "105604.222500", "105606.465000", "105608.707500", "105610.952500", "105613.195000", "105615.437500", "105617.680000", "105619.922500", "105622.167500", "105624.410000", "105626.652500", "105628.895000", "105631.137500", "105633.382500", "105635.625000", "105637.867500", "105640.110000", "105642.352500", "105644.597500", "105646.840000", "105649.082500", "105651.325000", "105653.567500", "105655.812500", "105658.055000", "105700.297500", "105702.540000", "105704.782500", "105707.027500", "105709.270000", "105711.512500", "105713.755000", "105715.997500", "105718.242500", "105720.485000", "105722.727500", "105724.970000", "105727.212500", "105729.457500", "105731.700000", "105733.942500", "105736.185000", "105738.427500", "105740.672500", "105742.915000", "105745.157500", "105747.400000", "105749.642500", "105751.887500", "105754.130000", "105756.372500", "105758.615000", "105800.857500", "105803.102500", "105805.345000", "105807.587500", "105809.830000", "105812.072500", "105814.317500", "105816.560000", "105818.802500", "105821.045000", "105823.287500", "105825.532500", "105827.775000", "105830.017500", "105832.260000", "105834.502500", "105836.747500", "105838.990000"],
      "ContentTime": ["105532.582000", "105532.585000", "105532.595000", "105532.598000", "105532.601000", "105532.604000", "105532.607000", "105532.610000", "105532.614000", "105532.617000", "105532.627000", "105532.631000", "105532.634000", "105532.637000", "105532.640000", "105532.643000", "105532.646000", "105532.649000", "105532.652000", "105532.655000", "105532.658000", "105532.661000", "105632.540000", "105632.543000", "105632.547000", "105632.550000", "105632.553000", "105632.556000", "105632.559000", "105632.562000", "105632.565000", "105632.568000", "105632.572000", "105632.575000", "105632.578000", "105632.581000", "105632.584000", "105632.587000", "105632.590000", "105632.601000", "105632.604000", "105632.607000", "105632.610000", "105632.613000", "105632.617000", "105632.620000", "105632.623000", "105632.626000", "105632.629000", "105732.540000", "105732.543000", "105732.546000", "105732.549000", "105732.553000", "105732.556000", "105732.559000", "105732.562000", "105732.565000", "105732.568000", "105732.571000", "105732.574000", "105732.577000", "105732.580000", "105732.583000", "105732.586000", "105732.590000", "105732.593000", "105732.596000", "105732.599000", "105732.602000", "105732.605000", "105732.608000", "105732.611000", "105732.614000", "105732.617000", "105732.620000", "105832.540000", "105832.543000", "105832.546000", "105832.549000", "105832.553000", "105832.555000", "105832.559000", "105832.562000", "105832.565000", "105832.568000", "105832.571000", "105832.574000", "105832.585000", "105832.588000", "105832.591000", "105832.594000", "105832.598000", "105832.601000", "105832.604000", "105832.607000", "105832.610000", "105832.613000", "105832.616000", "105832.620000", "105832.623000", "105832.626000", "105844.131000", "105844.134000", "105844.137000", "105844.140000", "105844.144000"],
      "InstanceCreationTime": ["105532.582000", "105532.585000", "105532.595000", "105532.598000", "105532.601000", "105532.604000", "105532.607000", "105532.610000", "105532.614000", "105532.617000", "105532.627000", "105532.631000", "105532.634000", "105532.637000", "105532.640000", "105532.643000", "105532.646000", "105532.649000", "105532.652000", "105532.655000", "105532.658000", "105532.661000", "105632.540000", "105632.543000", "105632.547000", "105632.550000", "105632.553000", "105632.556000", "105632.559000", "105632.562000", "105632.565000", "105632.568000", "105632.572000", "105632.575000", "105632.578000", "105632.581000", "105632.584000", "105632.587000", "105632.590000", "105632.601000", "105632.604000", "105632.607000", "105632.610000", "105632.613000", "105632.617000", "105632.620000", "105632.623000", "105632.626000", "105632.629000", "105732.540000", "105732.543000", "105732.546000", "105732.549000", "105732.553000", "105732.556000", "105732.559000", "105732.562000", "105732.565000", "105732.568000", "105732.571000", "105732.574000", "105732.577000", "105732.580000", "105732.583000", "105732.586000", "105732.590000", "105732.593000", "105732.596000", "105732.599000", "105732.602000", "105732.605000", "105732.608000", "105732.611000", "105732.614000", "105732.617000", "105732.620000", "105832.540000", "105832.543000", "105832.546000", "105832.549000", "105832.553000", "105832.555000", "105832.559000", "105832.562000", "105832.565000", "105832.568000", "105832.571000", "105832.574000", "105832.585000", "105832.588000", "105832.591000", "105832.594000", "105832.598000", "105832.601000", "105832.604000", "105832.607000", "105832.610000", "105832.613000", "105832.616000", "105832.620000", "105832.623000", "105832.626000", "105844.131000", "105844.134000", "105844.137000", "105844.140000", "105844.144000"],
      "InstanceNumber": [1, 2, 3, 4, 5, 6, 7, 8, 9, 10, 11, 12, 13, 14, 15, 16, 17, 18, 19, 20, 21, 22, 23, 24, 25, 26, 27, 28, 29, 30, 31, 32, 33, 34, 35, 36, 37, 38, 39, 40, 41, 42, 43, 44, 45, 46, 47, 48, 49, 50, 51, 52, 53, 54, 55, 56, 57, 58, 59, 60, 61, 62, 63, 64, 65, 66, 67, 68, 69, 70, 71, 72, 73, 74, 75, 76, 77, 78, 79, 80, 81, 82, 83, 84, 85, 86, 87, 88, 89, 90, 91, 92, 93, 94, 95, 96, 97, 98, 99, 100, 101, 102, 103, 104, 105, 106, 107],
      "LargestImagePixelValue": [47729, 46132, 20194, 11549, 20679, 20240, 33908, 12302, 11009, 11188, 21076, 36671, 11279, 10632, 12048, 11006, 20989, 11273, 11584, 11949, 11297, 48021, 21621, 10636, 20311, 20474, 11614, 10498, 12365, 10622, 36389, 11305, 21539, 11553, 11142, 34161, 12055, 12296, 19934, 11461, 10215, 46092, 11847, 10612, 13079, 35306, 21677, 10606, 10875, 21519, 12249, 22339, 20933, 11871, 36719, 21352, 11283, 20521, 11289, 10219, 19011, 57099, 19793, 11806, 10752, 11734, 11378, 34580, 20102, 21581, 10144, 10392, 11819, 11428, 20208, 10744, 10770, 12461, 19707, 22120, 12277, 48337, 21987, 11495, 11353, 20674, 19922, 12183, 21318, 10476, 11213, 10551, 20506, 11630, 10401, 12208, 34737, 20497, 11875, 22172, 21670, 47914, 9956, 11559, 21116, 11398, 10781],
      "SequenceName": [
 "ep_b0",
 "ep_b0",
 "ep_b1000#2",
 "ep_b2000#3",
 "ep_b1000#4",
 "ep_b1000#5",
 "ep_b300#6",
 "ep_b2000#7",
 "ep_b2000#8",
 "ep_b2000#9",
 "ep_b1000#10",
 "ep_b300#11",
 "ep_b2000#12",
 "ep_b2000#13",
 "ep_b2000#14",
 "ep_b2000#15",
 "ep_b1000#16",
 "ep_b2000#17",
 "ep_b2000#18",
 "ep_b2000#19",
 "ep_b2000#20",
 "ep_b0",
 "ep_b1000#22",
 "ep_b2000#23",
 "ep_b1000#24",
 "ep_b1000#25",
 "ep_b2000#26",
 "ep_b2000#27",
 "ep_b2000#28",
 "ep_b2000#29",
 "ep_b300#30",
 "ep_b2000#31",
 "ep_b1000#32",
 "ep_b2000#33",
 "ep_b2000#34",
 "ep_b300#35",
 "ep_b2000#36",
 "ep_b2000#37",
 "ep_b1000#38",
 "ep_b2000#39",
 "ep_b2000#40",
 "ep_b0",
 "ep_b2000#42",
 "ep_b2000#43",
 "ep_b2000#44",
 "ep_b300#45",
 "ep_b1000#46",
 "ep_b2000#47",
 "ep_b2000#48",
 "ep_b1000#49",
 "ep_b2000#50",
 "ep_b1000#51",
 "ep_b1000#52",
 "ep_b2000#53",
 "ep_b300#54",
 "ep_b1000#55",
 "ep_b2000#56",
 "ep_b1000#57",
 "ep_b2000#58",
 "ep_b2000#59",
 "ep_b1000#60",
 "ep_b0",
 "ep_b1000#62",
 "ep_b2000#63",
 "ep_b2000#64",
 "ep_b2000#65",
 "ep_b2000#66",
 "ep_b300#67",
 "ep_b1000#68",
 "ep_b1000#69",
 "ep_b2000#70",
 "ep_b2000#71",
 "ep_b2000#72",
 "ep_b2000#73",
 "ep_b1000#74",
 "ep_b2000#75",
 "ep_b2000#76",
 "ep_b2000#77",
 "ep_b1000#78",
 "ep_b1000#79",
 "ep_b2000#80",
 "ep_b0",
 "ep_b1000#82",
 "ep_b2000#83",
 "ep_b2000#84",
 "ep_b1000#85",
 "ep_b1000#86",
 "ep_b2000#87",
 "ep_b1000#88",
 "ep_b2000#89",
 "ep_b2000#90",
 "ep_b2000#91",
 "ep_b1000#92",
 "ep_b2000#93",
 "ep_b2000#94",
 "ep_b2000#95",
 "ep_b300#96",
 "ep_b1000#97",
 "ep_b2000#98",
 "ep_b1000#99",
 "ep_b1000#100",
 "ep_b0",
 "ep_b2000#102",
 "ep_b2000#103",
 "ep_b1000#104",
 "ep_b2000#105",
 "ep_b2000#106"
],
      "TriggerTime": [12835.0, 15080.0, 17322.5, 19565.0, 21807.5, 24050.0, 26295.0, 28537.5, 30780.0, 33022.5, 35265.0, 37510.0, 39752.5, 41995.0, 44237.5, 46480.0, 48725.0, 50967.5, 53210.0, 55452.5, 57695.0, 59940.0, 62182.5, 64425.0, 66667.5, 68910.0, 71155.0, 73397.5, 75640.0, 77882.5, 80125.0, 82370.0, 84612.5, 86855.0, 89097.5, 91340.0, 93585.0, 95827.5, 98070.0, 100312.5, 102555.0, 104800.0, 107042.5, 109285.0, 111527.5, 113770.0, 116015.0, 118257.5, 120500.0, 122742.5, 124985.0, 127230.0, 129472.5, 131715.0, 133957.5, 136200.0, 138445.0, 140687.5, 142930.0, 145172.5, 147415.0, 149660.0, 151902.5, 154145.0, 156387.5, 158630.0, 160875.0, 163117.5, 165360.0, 167602.5, 169845.0, 172090.0, 174332.5, 176575.0, 178817.5, 181060.0, 183305.0, 185547.5, 187790.0, 190032.5, 192275.0, 194520.0, 196762.5, 199005.0, 201247.5, 203490.0, 205735.0, 207977.5, 210220.0, 212462.5, 214705.0, 216950.0, 219192.5, 221435.0, 223677.5, 225920.0, 228165.0, 230407.5, 232650.0, 234892.5, 237135.0, 239380.0, 241622.5, 243865.0, 246107.5, 248350.0, 250595.0],
      "WindowCenter": [7751.0, 7719.0, 3709.0, 2412.0, 3728.0, 3645.0, 5707.0, 2409.0, 2366.0, 2384.0, 3697.0, 5713.0, 2354.0, 2329.0, 2412.0, 2400.0, 3703.0, 2383.0, 2412.0, 2409.0, 2360.0, 7620.0, 3711.0, 2373.0, 3692.0, 3699.0, 2396.0, 2334.0, 2381.0, 2344.0, 5702.0, 2349.0, 3691.0, 2424.0, 2363.0, 5706.0, 2394.0, 2397.0, 3645.0, 2413.0, 2322.0, 7682.0, 2392.0, 2334.0, 2419.0, 5688.0, 3698.0, 2316.0, 2369.0, 3664.0, 2436.0, 3698.0, 3683.0, 2389.0, 5712.0, 3673.0, 2390.0, 3681.0, 2357.0, 2373.0, 3640.0, 7751.0, 3699.0, 2366.0, 2390.0, 2400.0, 2371.0, 5739.0, 3646.0, 3710.0, 2347.0, 2388.0, 2414.0, 2395.0, 3656.0, 2377.0, 2384.0, 2417.0, 3638.0, 3716.0, 2422.0, 7634.0, 3685.0, 2370.0, 2369.0, 3718.0, 3680.0, 2362.0, 3673.0, 2361.0, 2392.0, 2324.0, 3659.0, 2398.0, 2373.0, 2403.0, 5729.0, 3717.0, 2424.0, 3718.0, 3709.0, 7646.0, 2300.0, 2369.0, 3690.0, 2353.0, 2384.0],
      "WindowWidth": [16750.0, 16693.0, 8483.0, 5872.0, 8534.0, 8380.0, 12450.0, 5863.0, 5770.0, 5793.0, 8473.0, 12462.0, 5748.0, 5710.0, 5855.0, 5851.0, 8482.0, 5807.0, 5849.0, 5855.0, 5777.0, 16464.0, 8497.0, 5805.0, 8451.0, 8475.0, 5828.0, 5702.0, 5802.0, 5741.0, 12432.0, 5734.0, 8490.0, 5891.0, 5760.0, 12451.0, 5841.0, 5841.0, 8377.0, 5851.0, 5685.0, 16607.0, 5829.0, 5702.0, 5877.0, 12416.0, 8484.0, 5690.0, 5760.0, 8430.0, 5910.0, 8479.0, 8439.0, 5813.0, 12465.0, 8424.0, 5830.0, 8439.0, 5775.0, 5769.0, 8358.0, 16712.0, 8479.0, 5769.0, 5809.0, 5849.0, 5805.0, 12519.0, 8380.0, 8502.0, 5722.0, 5832.0, 5858.0, 5834.0, 8428.0, 5791.0, 5822.0, 5863.0, 8382.0, 8499.0, 5886.0, 16496.0, 8454.0, 5801.0, 5787.0, 8527.0, 8431.0, 5756.0, 8436.0, 5789.0, 5826.0, 5687.0, 8416.0, 5848.0, 5770.0, 5840.0, 12493.0, 8515.0, 5885.0, 8505.0, 8493.0, 16519.0, 5654.0, 5797.0, 8447.0, 5754.0, 5819.0]
    },
    "slices": {}
  }
}