{
  "AcquisitionMatrixPE": 110,
  "AcquisitionNumber": 1,
  "AcquisitionTime": "16:00:33.942500",
  "BandwidthPerPixelPhaseEncode": 12.987,
  "BaseResolution": 110,
  "BodyPartExamined": "BRAIN",
  "CoilCombinationMethod": "Sum of Squares",
  "ConsistencyInfo": "N4_VE11C_LATEST_20160120",
  "ConversionSoftware": "dcm2niix",
  "ConversionSoftwareVersion": "v1.0.20220505",
  "DerivedVendorReportedEchoSpacing": 0.000700001,
  "DeviceSerialNumber": "167006",
  "DiffusionScheme": "Monopolar",
  "DwellTime": 2.7e-06,
  "EchoTime": 0.0768,
  "EchoTrainLength": 83,
  "EffectiveEchoSpacing": 0.000700001,
  "FlipAngle": 78,
  "HeudiconvVersion": "0.5.3.post811+g6206e14",
  "ImageComments": "Unaliased MB3/PE3/LB SENSE1+",
  "ImageOrientationPatientDICOM": [1, 0, 0, 0, 0.984808, -0.173648],
  "ImageOrientationText": "Tra>Cor(-10.0)",
  "ImageType": [
    "ORIGINAL",
    "PRIMARY",
    "DIFFUSION",
    "NONE",
    "MB",
    "ND",
    "MOSAIC"
],
  "ImagingFrequency": 123.259,
  "InPlanePhaseEncodingDirectionDICOM": "COL",
  "InstitutionAddress": "Chemin Queen-Mary 4565,Montreal,District,CA,H3W 1W5",
  "InstitutionName": "IUGM",
  "InstitutionalDepartmentName": "Department",
  "MRAcquisitionType": "2D",
  "MagneticFieldStrength": 3,
  "Manufacturer": "Siemens",
  "ManufacturersModelName": "Prisma_fit",
  "MatrixCoilMode": "SENSE",
  "Modality": "MR",
  "MultibandAccelerationFactor": 3,
  "PartialFourier": 0.75,
  "PatientPosition": "HFS",
  "PercentPhaseFOV": 100,
  "PercentSampling": 100,
  "PhaseEncodingDirection": "j-",
  "PhaseEncodingSteps": 83,
  "PhaseResolution": 1,
  "PixelBandwidth": 1685,
  "ProcedureStepDescription": "anat^generic",
  "ProtocolName": "dMRI_dir106_AP_test_cmrr",
  "PulseSequenceDetails": "%CustomerSeq%\\cmrr_mbep2d_diff",
  "ReceiveCoilActiveElements": "HC1-6",
  "ReceiveCoilName": "HeadNeck_64",
  "ReconMatrixPE": 110,
  "RepetitionTime": 2.243,
  "SAR": 0.144267,
  "ScanOptions": "PFP\\EXT",
  "ScanningSequence": "EP",
  "SequenceName": "ep_b0",
  "SequenceVariant": "SK\\SS",
  "SeriesDescription": "dMRI_dir106_AP_test_cmrr",
  "SeriesNumber": 15,
  "ShimSetting": [603, -7328, -8771, 593, 30, -277, -82, 72],
  "SliceThickness": 2,
  "SliceTiming": [0, 1.1675, 0.115, 1.285, 0.2325, 1.4025, 0.35, 1.52, 0.4675, 1.6375, 0.585, 1.7525, 0.7, 1.87, 0.8175, 1.9875, 0.935, 2.105, 1.0525, 0, 1.1675, 0.115, 1.285, 0.2325, 1.4025, 0.35, 1.52, 0.4675, 1.6375, 0.585, 1.7525, 0.7, 1.87, 0.8175, 1.9875, 0.935, 2.105, 1.0525, 0, 1.1675, 0.115, 1.285, 0.2325, 1.4025, 0.35, 1.52, 0.4675, 1.6375, 0.585, 1.7525, 0.7, 1.87, 0.8175, 1.9875, 0.935, 2.105, 1.0525],
  "SoftwareVersions": "syngo MR E11",
  "SpacingBetweenSlices": 2,
  "StationName": "MRC35049",
  "TotalReadoutTime": 0.0763001,
  "TxRefAmp": 230.598,
  "WipMemBlock": "0f8a9b72-e917-4008-ac33-2f2058339afa||Sequence: R017 ve11c/master r/75a17815+; Jun 28 2022 16:41:33 by eja",
  "dcmmeta_affine": [
    [-2.0, 0.0, 0.0, 109.49686431884766],
    [0.0, 1.9696154594421387, -0.3472963571548462, -79.91156005859375],
    [0.0, 0.3472963571548462, 1.9696154594421387, -40.56692123413086],
    [0.0, 0.0, 0.0, 1.0]
],
  "dcmmeta_reorient_transform": [
    [0.0, -1.0, 0.0, 109.0],
    [1.0, 0.0, 0.0, 0.0],
    [0.0, 0.0, -1.0, 56.0],
    [0.0, 0.0, 0.0, 1.0]
],
  "dcmmeta_shape": [110, 110, 57, 107],
  "dcmmeta_slice_dim": 2,
  "dcmmeta_version": 0.6,
  "global": {
    "const": {
      "AcquisitionMatrix": [110, 0, 0, 110],
      "AngioFlag": "N",
      "BitsAllocated": 16,
      "BitsStored": 16,
      "BodyPartExamined": "BRAIN",
      "CardiacNumberOfImages": 1,
      "Columns": 880,
      "EchoNumbers": 1,
      "EchoTime": 76.8,
      "EchoTrainLength": 83,
      "FlipAngle": 78.0,
      "HighBit": 15,
      "ImageOrientationPatient": [1.0, 0.0, 0.0, 0.0, 0.98480775371103, -0.1736481737037],
      "ImagePositionPatient": [-879.49686384201, -873.62990392367, 241.29594278602],
      "ImageType": [
        "ORIGINAL",
        "PRIMARY",
        "DIFFUSION",
        "NONE",
        "MB",
        "ND",
        "MOSAIC"
],
      "ImagedNucleus": "1H",
      "ImagingFrequency": 123.258818,
      "InPlanePhaseEncodingDirection": "COL",
      "MRAcquisitionType": "2D",
      "MagneticFieldStrength": 3.0,
      "Manufacturer": "SIEMENS",
      "ManufacturerModelName": "Prisma_fit",
      "Modality": "MR",
      "NominalInterval": 0,
      "NumberOfAverages": 1.0,
      "NumberOfPhaseEncodingSteps": 83,
      "PercentPhaseFieldOfView": 100.0,
      "PercentSampling": 100.0,
      "PerformedProcedureStepStartTime": "151012.737000",
      "PhotometricInterpretation": "MONOCHROME2",
      "PixelBandwidth": 1685.0,
      "PixelRepresentation": 0,
      "PixelSpacing": [2.0, 2.0],
      "ProtocolName": "dMRI_dir106_AP_test_cmrr",
      "RepetitionTime": 2243.0,
      "Rows": 880,
      "SAR": 0.14426682803035,
      "SamplesPerPixel": 1,
      "ScanOptions": [
        "PFP",
        "EXT"
],
      "ScanningSequence": "EP",
      "SequenceVariant": [
        "SK",
        "SS"
],
      "SeriesDescription": "dMRI_dir106_AP_test_cmrr",
      "SeriesNumber": 15,
      "SeriesTime": "160120.688000",
      "SliceLocation": 85.925878085396,
      "SliceThickness": 2.0,
      "SmallestImagePixelValue": 0,
      "SoftwareVersions": "syngo MR E11",
      "SpacingBetweenSlices": 2.0000000017979,
      "SpecificCharacterSet": "ISO_IR 100",
      "StudyID": "1",
      "StudyTime": "151012.660000",
      "TransmitCoilName": "Body",
      "VariableFlipAngleFlag": "N",
      "WindowCenterWidthExplanation": "Algo1",
      "dBdt": 0.0},
    "slices": {}
  },
  "time": {
    "samples": {
      "AcquisitionNumber": [1, 2, 3, 4, 5, 6, 7, 8, 9, 10, 11, 12, 13, 14, 15, 16, 17, 18, 19, 20, 21, 22, 23, 24, 25, 26, 27, 28, 29, 30, 31, 32, 33, 34, 35, 36, 37, 38, 39, 40, 41, 42, 43, 44, 45, 46, 47, 48, 49, 50, 51, 52, 53, 54, 55, 56, 57, 58, 59, 60, 61, 62, 63, 64, 65, 66, 67, 68, 69, 70, 71, 72, 73, 74, 75, 76, 77, 78, 79, 80, 81, 82, 83, 84, 85, 86, 87, 88, 89, 90, 91, 92, 93, 94, 95, 96, 97, 98, 99, 100, 101, 102, 103, 104, 105, 106, 107],
      "AcquisitionTime": ["160033.942500", "160036.185000", "160038.427500", "160040.670000", "160042.912500", "160045.157500", "160047.400000", "160049.642500", "160051.885000", "160054.127500", "160056.372500", "160058.615000", "160100.857500", "160103.100000", "160105.342500", "160107.587500", "160109.830000", "160112.072500", "160114.315000", "160116.557500", "160118.802500", "160121.045000", "160123.287500", "160125.530000", "160127.772500", "160130.017500", "160132.260000", "160134.502500", "160136.745000", "160138.987500", "160141.232500", "160143.475000", "160145.717500", "160147.960000", "160150.202500", "160152.447500", "160154.690000", "160156.932500", "160159.175000", "160201.417500", "160203.662500", "160205.905000", "160208.147500", "160210.390000", "160212.632500", "160214.877500", "160217.120000", "160219.362500", "160221.605000", "160223.847500", "160226.092500", "160228.335000", "160230.577500", "160232.820000", "160235.062500", "160237.307500", "160239.550000", "160241.792500", "160244.035000", "160246.277500", "160248.522500", "160250.765000", "160253.007500", "160255.250000", "160257.492500", "160259.737500", "160301.980000", "160304.222500", "160306.465000", "160308.707500", "160310.952500", "160313.195000", "160315.437500", "160317.680000", "160319.922500", "160322.167500", "160324.410000", "160326.652500", "160328.895000", "160331.137500", "160333.382500", "160335.625000", "160337.867500", "160340.110000", "160342.352500", "160344.597500", "160346.840000", "160349.082500", "160351.325000", "160353.567500", "160355.812500", "160358.055000", "160400.297500", "160402.540000", "160404.782500", "160407.027500", "160409.270000", "160411.512500", "160413.755000", "160415.997500", "160418.242500", "160420.485000", "160422.727500", "160424.970000", "160427.212500", "160429.457500", "160431.700000"],
      "ContentTime": ["160120.691000", "160120.695000", "160120.698000", "160120.701000", "160120.704000", "160120.707000", "160120.710000", "160120.713000", "160120.716000", "160120.719000", "160120.722000", "160120.726000", "160120.729000", "160120.732000", "160120.735000", "160120.738000", "160120.741000", "160120.744000", "160120.747000", "160120.750000", "160120.753000", "160220.647000", "160220.650000", "160220.653000", "160220.656000", "160220.659000", "160220.663000", "160220.666000", "160220.669000", "160220.672000", "160220.676000", "160220.679000", "160220.682000", "160220.685000", "160220.688000", "160220.691000", "160220.695000", "160220.698000", "160220.701000", "160220.704000", "160220.707000", "160220.710000", "160220.713000", "160220.716000", "160220.720000", "160220.723000", "160220.726000", "160320.647000", "160320.651000", "160320.660000", "160320.663000", "160320.666000", "160320.669000", "160320.672000", "160320.676000", "160320.679000", "160320.682000", "160320.686000", "160320.689000", "160320.692000", "160320.695000", "160320.698000", "160320.701000", "160320.704000", "160320.707000", "160320.710000", "160320.713000", "160320.716000", "160320.719000", "160320.722000", "160320.725000", "160320.728000", "160320.732000", "160320.735000", "160420.647000", "160420.650000", "160420.653000", "160420.657000", "160420.660000", "160420.663000", "160420.666000", "160420.669000", "160420.672000", "160420.676000", "160420.679000", "160420.682000", "160420.686000", "160420.689000", "160420.692000", "160420.695000", "160420.698000", "160420.701000", "160420.704000", "160420.708000", "160420.711000", "160420.714000", "160420.717000", "160420.720000", "160420.723000", "160420.726000", "160420.729000", "160435.580000", "160435.583000", "160435.590000", "160435.593000", "160435.596000", "160435.599000"],
      "InstanceCreationTime": ["160120.691000", "160120.695000", "160120.698000", "160120.701000", "160120.704000", "160120.707000", "160120.710000", "160120.713000", "160120.716000", "160120.719000", "160120.722000", "160120.726000", "160120.729000", "160120.732000", "160120.735000", "160120.738000", "160120.741000", "160120.744000", "160120.747000", "160120.750000", "160120.753000", "160220.647000", "160220.650000", "160220.653000", "160220.656000", "160220.659000", "160220.663000", "160220.666000", "160220.669000", "160220.672000", "160220.676000", "160220.679000", "160220.682000", "160220.685000", "160220.688000", "160220.691000", "160220.695000", "160220.698000", "160220.701000", "160220.704000", "160220.707000", "160220.710000", "160220.713000", "160220.716000", "160220.720000", "160220.723000", "160220.726000", "160320.647000", "160320.651000", "160320.660000", "160320.663000", "160320.666000", "160320.669000", "160320.672000", "160320.676000", "160320.679000", "160320.682000", "160320.686000", "160320.689000", "160320.692000", "160320.695000", "160320.698000", "160320.701000", "160320.704000", "160320.707000", "160320.710000", "160320.713000", "160320.716000", "160320.719000", "160320.722000", "160320.725000", "160320.728000", "160320.732000", "160320.735000", "160420.647000", "160420.650000", "160420.653000", "160420.657000", "160420.660000", "160420.663000", "160420.666000", "160420.669000", "160420.672000", "160420.676000", "160420.679000", "160420.682000", "160420.686000", "160420.689000", "160420.692000", "160420.695000", "160420.698000", "160420.701000", "160420.704000", "160420.708000", "160420.711000", "160420.714000", "160420.717000", "160420.720000", "160420.723000", "160420.726000", "160420.729000", "160435.580000", "160435.583000", "160435.590000", "160435.593000", "160435.596000", "160435.599000"],
      "InstanceNumber": [1, 2, 3, 4, 5, 6, 7, 8, 9, 10, 11, 12, 13, 14, 15, 16, 17, 18, 19, 20, 21, 22, 23, 24, 25, 26, 27, 28, 29, 30, 31, 32, 33, 34, 35, 36, 37, 38, 39, 40, 41, 42, 43, 44, 45, 46, 47, 48, 49, 50, 51, 52, 53, 54, 55, 56, 57, 58, 59, 60, 61, 62, 63, 64, 65, 66, 67, 68, 69, 70, 71, 72, 73, 74, 75, 76, 77, 78, 79, 80, 81, 82, 83, 84, 85, 86, 87, 88, 89, 90, 91, 92, 93, 94, 95, 96, 97, 98, 99, 100, 101, 102, 103, 104, 105, 106, 107],
      "LargestImagePixelValue": [38305, 38896, 12297, 6618, 12814, 11785, 21462, 6712, 6851, 6596, 13307, 21439, 6507, 6710, 5986, 7234, 13281, 6982, 6576, 7140, 6555, 35242, 12925, 6478, 12761, 12419, 6827, 6066, 6738, 6374, 20189, 6541, 13056, 7876, 6018, 22740, 6532, 6644, 13342, 6571, 7175, 35806, 6555, 6755, 6718, 22035, 12154, 6381, 6179, 13394, 7357, 13205, 12641, 6614, 21666, 12781, 7132, 11993, 6783, 6650, 12363, 34823, 13056, 6361, 6965, 7435, 6721, 21719, 13457, 12489, 6642, 6725, 6583, 6951, 13583, 6876, 7252, 6671, 12684, 13329, 6270, 34468, 11637, 6708, 7063, 12831, 12136, 5745, 13334, 6876, 6898, 6192, 12044, 7066, 6578, 6899, 21207, 13057, 7163, 13350, 12430, 37174, 6218, 7508, 12934, 7270, 6811],
      "SequenceName": [
 "ep_b0",
 "ep_b0",
 "ep_b1000#2",
 "ep_b2000#3",
 "ep_b1000#4",
 "ep_b1000#5",
 "ep_b300#6",
 "ep_b2000#7",
 "ep_b2000#8",
 "ep_b2000#9",
 "ep_b1000#10",
 "ep_b300#11",
 "ep_b2000#12",
 "ep_b2000#13",
 "ep_b2000#14",
 "ep_b2000#15",
 "ep_b1000#16",
 "ep_b2000#17",
 "ep_b2000#18",
 "ep_b2000#19",
 "ep_b2000#20",
 "ep_b0",
 "ep_b1000#22",
 "ep_b2000#23",
 "ep_b1000#24",
 "ep_b1000#25",
 "ep_b2000#26",
 "ep_b2000#27",
 "ep_b2000#28",
 "ep_b2000#29",
 "ep_b300#30",
 "ep_b2000#31",
 "ep_b1000#32",
 "ep_b2000#33",
 "ep_b2000#34",
 "ep_b300#35",
 "ep_b2000#36",
 "ep_b2000#37",
 "ep_b1000#38",
 "ep_b2000#39",
 "ep_b2000#40",
 "ep_b0",
 "ep_b2000#42",
 "ep_b2000#43",
 "ep_b2000#44",
 "ep_b300#45",
 "ep_b1000#46",
 "ep_b2000#47",
 "ep_b2000#48",
 "ep_b1000#49",
 "ep_b2000#50",
 "ep_b1000#51",
 "ep_b1000#52",
 "ep_b2000#53",
 "ep_b300#54",
 "ep_b1000#55",
 "ep_b2000#56",
 "ep_b1000#57",
 "ep_b2000#58",
 "ep_b2000#59",
 "ep_b1000#60",
 "ep_b0",
 "ep_b1000#62",
 "ep_b2000#63",
 "ep_b2000#64",
 "ep_b2000#65",
 "ep_b2000#66",
 "ep_b300#67",
 "ep_b1000#68",
 "ep_b1000#69",
 "ep_b2000#70",
 "ep_b2000#71",
 "ep_b2000#72",
 "ep_b2000#73",
 "ep_b1000#74",
 "ep_b2000#75",
 "ep_b2000#76",
 "ep_b2000#77",
 "ep_b1000#78",
 "ep_b1000#79",
 "ep_b2000#80",
 "ep_b0",
 "ep_b1000#82",
 "ep_b2000#83",
 "ep_b2000#84",
 "ep_b1000#85",
 "ep_b1000#86",
 "ep_b2000#87",
 "ep_b1000#88",
 "ep_b2000#89",
 "ep_b2000#90",
 "ep_b2000#91",
 "ep_b1000#92",
 "ep_b2000#93",
 "ep_b2000#94",
 "ep_b2000#95",
 "ep_b300#96",
 "ep_b1000#97",
 "ep_b2000#98",
 "ep_b1000#99",
 "ep_b1000#100",
 "ep_b0",
 "ep_b2000#102",
 "ep_b2000#103",
 "ep_b1000#104",
 "ep_b2000#105",
 "ep_b2000#106"
],
      "TriggerTime": [13890.0, 16132.5, 18375.0, 20617.5, 22860.0, 25105.0, 27347.5, 29590.0, 31832.5, 34075.0, 36320.0, 38562.5, 40805.0, 43047.5, 45290.0, 47535.0, 49777.5, 52020.0, 54262.5, 56505.0, 58750.0, 60992.5, 63235.0, 65477.5, 67720.0, 69965.0, 72207.5, 74450.0, 76692.5, 78935.0, 81180.0, 83422.5, 85665.0, 87907.5, 90150.0, 92395.0, 94637.5, 96880.0, 99122.5, 101365.0, 103610.0, 105852.5, 108095.0, 110337.5, 112580.0, 114825.0, 117067.5, 119310.0, 121552.5, 123795.0, 126040.0, 128282.5, 130525.0, 132767.5, 135010.0, 137255.0, 139497.5, 141740.0, 143982.5, 146225.0, 148470.0, 150712.5, 152955.0, 155197.5, 157440.0, 159685.0, 161927.5, 164170.0, 166412.5, 168655.0, 170900.0, 173142.5, 175385.0, 177627.5, 179870.0, 182115.0, 184357.5, 186600.0, 188842.5, 191085.0, 193330.0, 195572.5, 197815.0, 200057.5, 202300.0, 204545.0, 206787.5, 209030.0, 211272.5, 213515.0, 215760.0, 218002.5, 220245.0, 222487.5, 224730.0, 226975.0, 229217.5, 231460.0, 233702.5, 235945.0, 238190.0, 240432.5, 242675.0, 244917.5, 247160.0, 249405.0, 251647.5],
      "WindowCenter": [6927.0, 6906.0, 3357.0, 2137.0, 3325.0, 3325.0, 5120.0, 2135.0, 2136.0, 2175.0, 3371.0, 5077.0, 2106.0, 2116.0, 2156.0, 2176.0, 3325.0, 2149.0, 2221.0, 2136.0, 2107.0, 6907.0, 3332.0, 2140.0, 3359.0, 3348.0, 2137.0, 2149.0, 2130.0, 2121.0, 5140.0, 2108.0, 3344.0, 2171.0, 2138.0, 5137.0, 2152.0, 2134.0, 3335.0, 2208.0, 2145.0, 6825.0, 2145.0, 2121.0, 2122.0, 5072.0, 3368.0, 2107.0, 2179.0, 3350.0, 2158.0, 3328.0, 3388.0, 2156.0, 5075.0, 3349.0, 2133.0, 3395.0, 2149.0, 2181.0, 3340.0, 6851.0, 3351.0, 2106.0, 2197.0, 2130.0, 2135.0, 5090.0, 3307.0, 3312.0, 2150.0, 2156.0, 2210.0, 2194.0, 3320.0, 2151.0, 2217.0, 2155.0, 3309.0, 3310.0, 2122.0, 6858.0, 3301.0, 2161.0, 2132.0, 3331.0, 3342.0, 2096.0, 3324.0, 2154.0, 2221.0, 2131.0, 3392.0, 2148.0, 2183.0, 2138.0, 5103.0, 3358.0, 2120.0, 3361.0, 3337.0, 6862.0, 2110.0, 2129.0, 3399.0, 2130.0, 2169.0],
      "WindowWidth": [14827.0, 14769.0, 7713.0, 5248.0, 7638.0, 7640.0, 11157.0, 5237.0, 5245.0, 5318.0, 7729.0, 11070.0, 5175.0, 5190.0, 5298.0, 5322.0, 7633.0, 5267.0, 5415.0, 5243.0, 5180.0, 14774.0, 7655.0, 5255.0, 7715.0, 7678.0, 5245.0, 5267.0, 5217.0, 5208.0, 11184.0, 5191.0, 7687.0, 5297.0, 5251.0, 11185.0, 5284.0, 5237.0, 7657.0, 5391.0, 5253.0, 14609.0, 5271.0, 5212.0, 5211.0, 11058.0, 7729.0, 5185.0, 5333.0, 7692.0, 5278.0, 7650.0, 7752.0, 5293.0, 11072.0, 7675.0, 5229.0, 7780.0, 5262.0, 5339.0, 7670.0, 14666.0, 7686.0, 5178.0, 5372.0, 5222.0, 5237.0, 11100.0, 7600.0, 7614.0, 5272.0, 5291.0, 5397.0, 5362.0, 7628.0, 5278.0, 5402.0, 5269.0, 7614.0, 7601.0, 5218.0, 14688.0, 7597.0, 5289.0, 5229.0, 7655.0, 7679.0, 5162.0, 7637.0, 5285.0, 5417.0, 5225.0, 7777.0, 5266.0, 5347.0, 5248.0, 11112.0, 7708.0, 5206.0, 7702.0, 7657.0, 14672.0, 5195.0, 5218.0, 7773.0, 5218.0, 5315.0]
    },
    "slices": {}
  }
}