{
  "AcquisitionMatrixPE": 110,
  "AcquisitionNumber": 1,
  "AcquisitionTime": "16:04:51.947500",
  "BandwidthPerPixelPhaseEncode": 12.987,
  "BaseResolution": 110,
  "BodyPartExamined": "BRAIN",
  "CoilCombinationMethod": "Sum of Squares",
  "ConsistencyInfo": "N4_VE11C_LATEST_20160120",
  "ConversionSoftware": "dcm2niix",
  "ConversionSoftwareVersion": "v1.0.20220505",
  "DerivedVendorReportedEchoSpacing": 0.000700001,
  "DeviceSerialNumber": "167006",
  "DiffusionScheme": "Monopolar",
  "DwellTime": 2.7e-06,
  "EchoTime": 0.0768,
  "EchoTrainLength": 83,
  "EffectiveEchoSpacing": 0.000700001,
  "FlipAngle": 78,
  "HeudiconvVersion": "0.5.3.post811+g6206e14",
  "ImageComments": "Unaliased MB3/PE3/LB SENSE1+",
  "ImageOrientationPatientDICOM": [1, 0, 0, 0, 0.984808, -0.173648],
  "ImageOrientationText": "Tra>Cor(-10.0)",
  "ImageType": [
    "ORIGINAL",
    "PRIMARY",
    "DIFFUSION",
    "NONE",
    "MB",
    "ND",
    "MOSAIC"
],
  "ImagingFrequency": 123.259,
  "InPlanePhaseEncodingDirectionDICOM": "COL",
  "InstitutionAddress": "Chemin Queen-Mary 4565,Montreal,District,CA,H3W 1W5",
  "InstitutionName": "IUGM",
  "InstitutionalDepartmentName": "Department",
  "MRAcquisitionType": "2D",
  "MagneticFieldStrength": 3,
  "Manufacturer": "Siemens",
  "ManufacturersModelName": "Prisma_fit",
  "MatrixCoilMode": "SENSE",
  "Modality": "MR",
  "MultibandAccelerationFactor": 3,
  "PartialFourier": 0.75,
  "PatientPosition": "HFS",
  "PercentPhaseFOV": 100,
  "PercentSampling": 100,
  "PhaseEncodingDirection": "j",
  "PhaseEncodingSteps": 83,
  "PhaseResolution": 1,
  "PixelBandwidth": 1685,
  "ProcedureStepDescription": "anat^generic",
  "ProtocolName": "dMRI_dir106_PA_test_cmrr",
  "PulseSequenceDetails": "%CustomerSeq%\\cmrr_mbep2d_diff",
  "ReceiveCoilActiveElements": "HC1-6",
  "ReceiveCoilName": "HeadNeck_64",
  "ReconMatrixPE": 110,
  "RepetitionTime": 2.243,
  "SAR": 0.144267,
  "ScanOptions": "PFP\\EXT",
  "ScanningSequence": "EP",
  "SequenceName": "ep_b0",
  "SequenceVariant": "SK\\SS",
  "SeriesDescription": "dMRI_dir106_PA_test_cmrr",
  "SeriesNumber": 21,
  "ShimSetting": [603, -7328, -8771, 593, 30, -277, -82, 72],
  "SliceThickness": 2,
  "SliceTiming": [0, 1.17, 0.1175, 1.2875, 0.235, 1.405, 0.35, 1.52, 0.4675, 1.6375, 0.585, 1.755, 0.7025, 1.8725, 0.82, 1.9875, 0.935, 2.105, 1.0525, 0, 1.17, 0.1175, 1.2875, 0.235, 1.405, 0.35, 1.52, 0.4675, 1.6375, 0.585, 1.755, 0.7025, 1.8725, 0.82, 1.9875, 0.935, 2.105, 1.0525, 0, 1.17, 0.1175, 1.2875, 0.235, 1.405, 0.35, 1.52, 0.4675, 1.6375, 0.585, 1.755, 0.7025, 1.8725, 0.82, 1.9875, 0.935, 2.105, 1.0525],
  "SoftwareVersions": "syngo MR E11",
  "SpacingBetweenSlices": 2,
  "StationName": "MRC35049",
  "TotalReadoutTime": 0.0763001,
  "TxRefAmp": 230.598,
  "WipMemBlock": "e26aff1b-be0d-4d51-9e90-b017981230c8||Sequence: R017 ve11c/master r/75a17815+; Jun 28 2022 16:41:33 by eja",
  "dcmmeta_affine": [
    [-2.0, 0.0, 0.0, 109.49686431884766],
    [0.0, 1.9696154594421387, -0.3472963571548462, -79.91156005859375],
    [0.0, 0.3472963571548462, 1.9696154594421387, -40.56692123413086],
    [0.0, 0.0, 0.0, 1.0]
],
  "dcmmeta_reorient_transform": [
    [0.0, -1.0, 0.0, 109.0],
    [1.0, 0.0, 0.0, 0.0],
    [0.0, 0.0, -1.0, 56.0],
    [0.0, 0.0, 0.0, 1.0]
],
  "dcmmeta_shape": [110, 110, 57, 107],
  "dcmmeta_slice_dim": 2,
  "dcmmeta_version": 0.6,
  "global": {
    "const": {
      "AcquisitionMatrix": [110, 0, 0, 110],
      "AngioFlag": "N",
      "BitsAllocated": 16,
      "BitsStored": 16,
      "BodyPartExamined": "BRAIN",
      "CardiacNumberOfImages": 1,
      "Columns": 880,
      "EchoNumbers": 1,
      "EchoTime": 76.8,
      "EchoTrainLength": 83,
      "FlipAngle": 78.0,
      "HighBit": 15,
      "ImageOrientationPatient": [1.0, 0.0, 0.0, 0.0, 0.98480775371103, -0.1736481737037],
      "ImagePositionPatient": [-879.49686384201, -873.62990392367, 241.29594278602],
      "ImageType": [
        "ORIGINAL",
        "PRIMARY",
        "DIFFUSION",
        "NONE",
        "MB",
        "ND",
        "MOSAIC"
],
      "ImagedNucleus": "1H",
      "ImagingFrequency": 123.258827,
      "InPlanePhaseEncodingDirection": "COL",
      "LargestImagePixelValue": 4095,
      "MRAcquisitionType": "2D",
      "MagneticFieldStrength": 3.0,
      "Manufacturer": "SIEMENS",
      "ManufacturerModelName": "Prisma_fit",
      "Modality": "MR",
      "NominalInterval": 0,
      "NumberOfAverages": 1.0,
      "NumberOfPhaseEncodingSteps": 83,
      "PercentPhaseFieldOfView": 100.0,
      "PercentSampling": 100.0,
      "PerformedProcedureStepStartTime": "151012.737000",
      "PhotometricInterpretation": "MONOCHROME2",
      "PixelBandwidth": 1685.0,
      "PixelRepresentation": 0,
      "PixelSpacing": [2.0, 2.0],
      "ProtocolName": "dMRI_dir106_PA_test_cmrr",
      "RepetitionTime": 2243.0,
      "RescaleIntercept": -4096.0,
      "RescaleSlope": 2.0,
      "RescaleType": "US",
      "Rows": 880,
      "SAR": 0.14426682803035,
      "SamplesPerPixel": 1,
      "ScanOptions": [
        "PFP",
        "EXT"
],
      "ScanningSequence": "EP",
      "SequenceVariant": [
        "SK",
        "SS"
],
      "SeriesDescription": "dMRI_dir106_PA_test_cmrr",
      "SeriesNumber": 21,
      "SeriesTime": "160552.870000",
      "SliceLocation": 85.925878085396,
      "SliceThickness": 2.0,
      "SmallestImagePixelValue": 0,
      "SoftwareVersions": "syngo MR E11",
      "SpacingBetweenSlices": 2.0000000017979,
      "SpecificCharacterSet": "ISO_IR 100",
      "StudyID": "1",
      "StudyTime": "151012.660000",
      "TransmitCoilName": "Body",
      "VariableFlipAngleFlag": "N",
      "WindowCenterWidthExplanation": "Algo1",
      "dBdt": 0.0},
    "slices": {}
  },
  "time": {
    "samples": {
      "AcquisitionNumber": [1, 2, 3, 4, 5, 6, 7, 8, 9, 10, 11, 12, 13, 14, 15, 16, 17, 18, 19, 20, 21, 22, 23, 24, 25, 26, 27, 28, 29, 30, 31, 32, 33, 34, 35, 36, 37, 38, 39, 40, 41, 42, 43, 44, 45, 46, 47, 48, 49, 50, 51, 52, 53, 54, 55, 56, 57, 58, 59, 60, 61, 62, 63, 64, 65, 66, 67, 68, 69, 70, 71, 72, 73, 74, 75, 76, 77, 78, 79, 80, 81, 82, 83, 84, 85, 86, 87, 88, 89, 90, 91, 92, 93, 94, 95, 96, 97, 98, 99, 100, 101, 102, 103, 104, 105, 106, 107],
      "AcquisitionTime": ["160451.947500", "160454.190000", "160456.435000", "160458.677500", "160500.920000", "160503.162500", "160505.405000", "160507.650000", "160509.892500", "160512.135000", "160514.377500", "160516.620000", "160518.865000", "160521.107500", "160523.350000", "160525.592500", "160527.835000", "160530.080000", "160532.322500", "160534.565000", "160536.807500", "160539.050000", "160541.295000", "160543.537500", "160545.780000", "160548.022500", "160550.265000", "160552.510000", "160554.752500", "160556.995000", "160559.237500", "160601.480000", "160603.725000", "160605.967500", "160608.210000", "160610.452500", "160612.695000", "160614.940000", "160617.182500", "160619.425000", "160621.667500", "160623.910000", "160626.155000", "160628.397500", "160630.640000", "160632.882500", "160635.125000", "160637.370000", "160639.612500", "160641.855000", "160644.097500", "160646.340000", "160648.585000", "160650.827500", "160653.070000", "160655.312500", "160657.555000", "160659.800000", "160702.042500", "160704.285000", "160706.527500", "160708.770000", "160711.015000", "160713.257500", "160715.500000", "160717.742500", "160719.985000", "160722.230000", "160724.472500", "160726.715000", "160728.957500", "160731.200000", "160733.445000", "160735.687500", "160737.930000", "160740.172500", "160742.415000", "160744.660000", "160746.902500", "160749.145000", "160751.387500", "160753.630000", "160755.875000", "160758.117500", "160800.360000", "160802.602500", "160804.845000", "160807.090000", "160809.332500", "160811.575000", "160813.817500", "160816.060000", "160818.305000", "160820.547500", "160822.790000", "160825.032500", "160827.275000", "160829.520000", "160831.762500", "160834.005000", "160836.247500", "160838.490000", "160840.735000", "160842.977500", "160845.220000", "160847.462500", "160849.705000"],
      "ContentTime": ["160552.872000", "160552.875000", "160552.879000", "160552.882000", "160552.885000", "160552.888000", "160552.891000", "160552.894000", "160552.897000", "160552.900000", "160552.908000", "160552.912000", "160552.915000", "160552.918000", "160552.921000", "160552.924000", "160552.927000", "160552.930000", "160552.933000", "160552.937000", "160552.940000", "160552.943000", "160552.946000", "160552.949000", "160552.952000", "160552.955000", "160552.958000", "160652.242000", "160652.245000", "160652.248000", "160652.251000", "160652.255000", "160652.258000", "160652.261000", "160652.264000", "160652.267000", "160652.270000", "160652.273000", "160652.276000", "160652.279000", "160652.282000", "160652.285000", "160652.288000", "160652.291000", "160652.294000", "160652.298000", "160652.301000", "160652.304000", "160652.307000", "160652.310000", "160652.313000", "160652.316000", "160652.319000", "160752.233000", "160752.236000", "160752.239000", "160752.242000", "160752.245000", "160752.248000", "160752.252000", "160752.255000", "160752.258000", "160752.261000", "160752.264000", "160752.267000", "160752.270000", "160752.273000", "160752.276000", "160752.279000", "160752.282000", "160752.285000", "160752.288000", "160752.291000", "160752.295000", "160752.298000", "160752.301000", "160752.304000", "160752.307000", "160752.310000", "160752.313000", "160852.253000", "160852.256000", "160852.259000", "160852.262000", "160852.265000", "160852.268000", "160852.271000", "160852.274000", "160852.278000", "160852.281000", "160852.284000", "160852.287000", "160852.290000", "160852.293000", "160852.296000", "160852.299000", "160852.302000", "160852.305000", "160852.308000", "160852.311000", "160852.314000", "160852.317000", "160852.321000", "160852.324000", "160852.327000", "160852.330000", "160852.333000"],
      "InstanceCreationTime": ["160552.872000", "160552.875000", "160552.879000", "160552.882000", "160552.885000", "160552.888000", "160552.891000", "160552.894000", "160552.897000", "160552.900000", "160552.908000", "160552.912000", "160552.915000", "160552.918000", "160552.921000", "160552.924000", "160552.927000", "160552.930000", "160552.933000", "160552.937000", "160552.940000", "160552.943000", "160552.946000", "160552.949000", "160552.952000", "160552.955000", "160552.958000", "160652.242000", "160652.245000", "160652.248000", "160652.251000", "160652.255000", "160652.258000", "160652.261000", "160652.264000", "160652.267000", "160652.270000", "160652.273000", "160652.276000", "160652.279000", "160652.282000", "160652.285000", "160652.288000", "160652.291000", "160652.294000", "160652.298000", "160652.301000", "160652.304000", "160652.307000", "160652.310000", "160652.313000", "160652.316000", "160652.319000", "160752.233000", "160752.236000", "160752.239000", "160752.242000", "160752.245000", "160752.248000", "160752.252000", "160752.255000", "160752.258000", "160752.261000", "160752.264000", "160752.267000", "160752.270000", "160752.273000", "160752.276000", "160752.279000", "160752.282000", "160752.285000", "160752.288000", "160752.291000", "160752.295000", "160752.298000", "160752.301000", "160752.304000", "160752.307000", "160752.310000", "160752.313000", "160852.253000", "160852.256000", "160852.259000", "160852.262000", "160852.265000", "160852.268000", "160852.271000", "160852.274000", "160852.278000", "160852.281000", "160852.284000", "160852.287000", "160852.290000", "160852.293000", "160852.296000", "160852.299000", "160852.302000", "160852.305000", "160852.308000", "160852.311000", "160852.314000", "160852.317000", "160852.321000", "160852.324000", "160852.327000", "160852.330000", "160852.333000"],
      "InstanceNumber": [1, 2, 3, 4, 5, 6, 7, 8, 9, 10, 11, 12, 13, 14, 15, 16, 17, 18, 19, 20, 21, 22, 23, 24, 25, 26, 27, 28, 29, 30, 31, 32, 33, 34, 35, 36, 37, 38, 39, 40, 41, 42, 43, 44, 45, 46, 47, 48, 49, 50, 51, 52, 53, 54, 55, 56, 57, 58, 59, 60, 61, 62, 63, 64, 65, 66, 67, 68, 69, 70, 71, 72, 73, 74, 75, 76, 77, 78, 79, 80, 81, 82, 83, 84, 85, 86, 87, 88, 89, 90, 91, 92, 93, 94, 95, 96, 97, 98, 99, 100, 101, 102, 103, 104, 105, 106, 107],
      "SequenceName": [
 "ep_b0",
 "ep_b0",
 "ep_b1000#2",
 "ep_b2000#3",
 "ep_b1000#4",
 "ep_b1000#5",
 "ep_b300#6",
 "ep_b2000#7",
 "ep_b2000#8",
 "ep_b2000#9",
 "ep_b1000#10",
 "ep_b300#11",
 "ep_b2000#12",
 "ep_b2000#13",
 "ep_b2000#14",
 "ep_b2000#15",
 "ep_b1000#16",
 "ep_b2000#17",
 "ep_b2000#18",
 "ep_b2000#19",
 "ep_b2000#20",
 "ep_b0",
 "ep_b1000#22",
 "ep_b2000#23",
 "ep_b1000#24",
 "ep_b1000#25",
 "ep_b2000#26",
 "ep_b2000#27",
 "ep_b2000#28",
 "ep_b2000#29",
 "ep_b300#30",
 "ep_b2000#31",
 "ep_b1000#32",
 "ep_b2000#33",
 "ep_b2000#34",
 "ep_b300#35",
 "ep_b2000#36",
 "ep_b2000#37",
 "ep_b1000#38",
 "ep_b2000#39",
 "ep_b2000#40",
 "ep_b0",
 "ep_b2000#42",
 "ep_b2000#43",
 "ep_b2000#44",
 "ep_b300#45",
 "ep_b1000#46",
 "ep_b2000#47",
 "ep_b2000#48",
 "ep_b1000#49",
 "ep_b2000#50",
 "ep_b1000#51",
 "ep_b1000#52",
 "ep_b2000#53",
 "ep_b300#54",
 "ep_b1000#55",
 "ep_b2000#56",
 "ep_b1000#57",
 "ep_b2000#58",
 "ep_b2000#59",
 "ep_b1000#60",
 "ep_b0",
 "ep_b1000#62",
 "ep_b2000#63",
 "ep_b2000#64",
 "ep_b2000#65",
 "ep_b2000#66",
 "ep_b300#67",
 "ep_b1000#68",
 "ep_b1000#69",
 "ep_b2000#70",
 "ep_b2000#71",
 "ep_b2000#72",
 "ep_b2000#73",
 "ep_b1000#74",
 "ep_b2000#75",
 "ep_b2000#76",
 "ep_b2000#77",
 "ep_b1000#78",
 "ep_b1000#79",
 "ep_b2000#80",
 "ep_b0",
 "ep_b1000#82",
 "ep_b2000#83",
 "ep_b2000#84",
 "ep_b1000#85",
 "ep_b1000#86",
 "ep_b2000#87",
 "ep_b1000#88",
 "ep_b2000#89",
 "ep_b2000#90",
 "ep_b2000#91",
 "ep_b1000#92",
 "ep_b2000#93",
 "ep_b2000#94",
 "ep_b2000#95",
 "ep_b300#96",
 "ep_b1000#97",
 "ep_b2000#98",
 "ep_b1000#99",
 "ep_b1000#100",
 "ep_b0",
 "ep_b2000#102",
 "ep_b2000#103",
 "ep_b1000#104",
 "ep_b2000#105",
 "ep_b2000#106"
],
      "TriggerTime": [13890.0, 16132.5, 18375.0, 20620.0, 22862.5, 25105.0, 27347.5, 29590.0, 31835.0, 34077.5, 36320.0, 38562.5, 40805.0, 43050.0, 45292.5, 47535.0, 49777.5, 52020.0, 54265.0, 56507.5, 58750.0, 60992.5, 63235.0, 65480.0, 67722.5, 69965.0, 72207.5, 74450.0, 76695.0, 78937.5, 81180.0, 83422.5, 85665.0, 87910.0, 90152.5, 92395.0, 94637.5, 96880.0, 99125.0, 101367.5, 103610.0, 105852.5, 108095.0, 110340.0, 112582.5, 114825.0, 117067.5, 119310.0, 121555.0, 123797.5, 126040.0, 128282.5, 130525.0, 132770.0, 135012.5, 137255.0, 139497.5, 141740.0, 143985.0, 146227.5, 148470.0, 150712.5, 152955.0, 155200.0, 157442.5, 159685.0, 161927.5, 164170.0, 166415.0, 168657.5, 170900.0, 173142.5, 175385.0, 177630.0, 179872.5, 182115.0, 184357.5, 186600.0, 188845.0, 191087.5, 193330.0, 195572.5, 197815.0, 200060.0, 202302.5, 204545.0, 206787.5, 209030.0, 211275.0, 213517.5, 215760.0, 218002.5, 220245.0, 222490.0, 224732.5, 226975.0, 229217.5, 231460.0, 233705.0, 235947.5, 238190.0, 240432.5, 242675.0, 244920.0, 247162.5, 249405.0, 251647.5],
      "WindowCenter": [4584.0, 4582.0, 4714.0, 4424.0, 4744.0, 4842.0, 4740.0, 4464.0, 4756.0, 4646.0, 4878.0, 4568.0, 4990.0, 5052.0, 5024.0, 4996.0, 5070.0, 5010.0, 4586.0, 5092.0, 4512.0, 4510.0, 5220.0, 4706.0, 4864.0, 4780.0, 4942.0, 4824.0, 5098.0, 4540.0, 4674.0, 4516.0, 4874.0, 4974.0, 5084.0, 4636.0, 5084.0, 4556.0, 5192.0, 4874.0, 5050.0, 4540.0, 4868.0, 4500.0, 5120.0, 4644.0, 4650.0, 4822.0, 4794.0, 4682.0, 5118.0, 5158.0, 4712.0, 5050.0, 4752.0, 4932.0, 5078.0, 4500.0, 5234.0, 4800.0, 4928.0, 4682.0, 4910.0, 5142.0, 4668.0, 5086.0, 4780.0, 4726.0, 4516.0, 5098.0, 5092.0, 4732.0, 5022.0, 4552.0, 4886.0, 4872.0, 4454.0, 4684.0, 4540.0, 4822.0, 4548.0, 4724.0, 5116.0, 5092.0, 5178.0, 4580.0, 4686.0, 5198.0, 5154.0, 4438.0, 4660.0, 5242.0, 4652.0, 4854.0, 4988.0, 5082.0, 4560.0, 4636.0, 4562.0, 4988.0, 4596.0, 4614.0, 4648.0, 4950.0, 4690.0, 4468.0, 4698.0],
      "WindowWidth": [18150.0, 18150.0, 18450.0, 18210.0, 18512.0, 18684.0, 18364.0, 18246.0, 18608.0, 18444.0, 18646.0, 18196.0, 18878.0, 19034.0, 19018.0, 18860.0, 18844.0, 18850.0, 18362.0, 19042.0, 18400.0, 18082.0, 19078.0, 18508.0, 18610.0, 18480.0, 18794.0, 18624.0, 19158.0, 18336.0, 18290.0, 18338.0, 18702.0, 18806.0, 18934.0, 18250.0, 19168.0, 18416.0, 19044.0, 18712.0, 18868.0, 18130.0, 18776.0, 18278.0, 19308.0, 18328.0, 18444.0, 18638.0, 18590.0, 18418.0, 19214.0, 19124.0, 18400.0, 18944.0, 18434.0, 18664.0, 19048.0, 18208.0, 19254.0, 18584.0, 18658.0, 18264.0, 18586.0, 19306.0, 18452.0, 19276.0, 18660.0, 18380.0, 18236.0, 18936.0, 18978.0, 18692.0, 18998.0, 18310.0, 18670.0, 18654.0, 18266.0, 18492.0, 18282.0, 18580.0, 18410.0, 18300.0, 18944.0, 19184.0, 19404.0, 18314.0, 18416.0, 19224.0, 18932.0, 18300.0, 18496.0, 19266.0, 18376.0, 19032.0, 18804.0, 19120.0, 18192.0, 18386.0, 18366.0, 18788.0, 18314.0, 18186.0, 18400.0, 19188.0, 18422.0, 18280.0, 18524.0]
    },
    "slices": {}
  }
}