{
  "AcquisitionMatrixPE": 110,
  "AcquisitionNumber": 1,
  "AcquisitionTime": "16:04:51.947500",
  "BandwidthPerPixelPhaseEncode": 12.987,
  "BaseResolution": 110,
  "BodyPartExamined": "BRAIN",
  "CoilCombinationMethod": "Sum of Squares",
  "ConsistencyInfo": "N4_VE11C_LATEST_20160120",
  "ConversionSoftware": "dcm2niix",
  "ConversionSoftwareVersion": "v1.0.20220505",
  "DerivedVendorReportedEchoSpacing": 0.000700001,
  "DeviceSerialNumber": "167006",
  "DiffusionScheme": "Monopolar",
  "DwellTime": 2.7e-06,
  "EchoTime": 0.0768,
  "EchoTrainLength": 83,
  "EffectiveEchoSpacing": 0.000700001,
  "FlipAngle": 78,
  "HeudiconvVersion": "0.5.3.post811+g6206e14",
  "ImageComments": "Unaliased MB3/PE3/LB SENSE1+",
  "ImageOrientationPatientDICOM": [1, 0, 0, 0, 0.984808, -0.173648],
  "ImageOrientationText": "Tra>Cor(-10.0)",
  "ImageType": [
    "ORIGINAL",
    "PRIMARY",
    "DIFFUSION",
    "NONE",
    "MB",
    "ND",
    "MOSAIC"
],
  "ImagingFrequency": 123.259,
  "InPlanePhaseEncodingDirectionDICOM": "COL",
  "InstitutionAddress": "Chemin Queen-Mary 4565,Montreal,District,CA,H3W 1W5",
  "InstitutionName": "IUGM",
  "InstitutionalDepartmentName": "Department",
  "MRAcquisitionType": "2D",
  "MagneticFieldStrength": 3,
  "Manufacturer": "Siemens",
  "ManufacturersModelName": "Prisma_fit",
  "MatrixCoilMode": "SENSE",
  "Modality": "MR",
  "MultibandAccelerationFactor": 3,
  "PartialFourier": 0.75,
  "PatientPosition": "HFS",
  "PercentPhaseFOV": 100,
  "PercentSampling": 100,
  "PhaseEncodingDirection": "j",
  "PhaseEncodingSteps": 83,
  "PhaseResolution": 1,
  "PixelBandwidth": 1685,
  "ProcedureStepDescription": "anat^generic",
  "ProtocolName": "dMRI_dir106_PA_test_cmrr",
  "PulseSequenceDetails": "%CustomerSeq%\\cmrr_mbep2d_diff",
  "ReceiveCoilActiveElements": "HC1-6",
  "ReceiveCoilName": "HeadNeck_64",
  "ReconMatrixPE": 110,
  "RepetitionTime": 2.243,
  "SAR": 0.144267,
  "ScanOptions": "PFP\\EXT",
  "ScanningSequence": "EP",
  "SequenceName": "ep_b0",
  "SequenceVariant": "SK\\SS",
  "SeriesDescription": "dMRI_dir106_PA_test_cmrr",
  "SeriesNumber": 20,
  "ShimSetting": [603, -7328, -8771, 593, 30, -277, -82, 72],
  "SliceThickness": 2,
  "SliceTiming": [0, 1.17, 0.1175, 1.2875, 0.235, 1.405, 0.35, 1.52, 0.4675, 1.6375, 0.585, 1.755, 0.7025, 1.8725, 0.82, 1.9875, 0.935, 2.105, 1.0525, 0, 1.17, 0.1175, 1.2875, 0.235, 1.405, 0.35, 1.52, 0.4675, 1.6375, 0.585, 1.755, 0.7025, 1.8725, 0.82, 1.9875, 0.935, 2.105, 1.0525, 0, 1.17, 0.1175, 1.2875, 0.235, 1.405, 0.35, 1.52, 0.4675, 1.6375, 0.585, 1.755, 0.7025, 1.8725, 0.82, 1.9875, 0.935, 2.105, 1.0525],
  "SoftwareVersions": "syngo MR E11",
  "SpacingBetweenSlices": 2,
  "StationName": "MRC35049",
  "TotalReadoutTime": 0.0763001,
  "TxRefAmp": 230.598,
  "WipMemBlock": "e26aff1b-be0d-4d51-9e90-b017981230c8||Sequence: R017 ve11c/master r/75a17815+; Jun 28 2022 16:41:33 by eja",
  "dcmmeta_affine": [
    [-2.0, 0.0, 0.0, 109.49686431884766],
    [0.0, 1.9696154594421387, -0.3472963571548462, -79.91156005859375],
    [0.0, 0.3472963571548462, 1.9696154594421387, -40.56692123413086],
    [0.0, 0.0, 0.0, 1.0]
],
  "dcmmeta_reorient_transform": [
    [0.0, -1.0, 0.0, 109.0],
    [1.0, 0.0, 0.0, 0.0],
    [0.0, 0.0, -1.0, 56.0],
    [0.0, 0.0, 0.0, 1.0]
],
  "dcmmeta_shape": [110, 110, 57, 107],
  "dcmmeta_slice_dim": 2,
  "dcmmeta_version": 0.6,
  "global": {
    "const": {
      "AcquisitionMatrix": [110, 0, 0, 110],
      "AngioFlag": "N",
      "BitsAllocated": 16,
      "BitsStored": 16,
      "BodyPartExamined": "BRAIN",
      "CardiacNumberOfImages": 1,
      "Columns": 880,
      "EchoNumbers": 1,
      "EchoTime": 76.8,
      "EchoTrainLength": 83,
      "FlipAngle": 78.0,
      "HighBit": 15,
      "ImageOrientationPatient": [1.0, 0.0, 0.0, 0.0, 0.98480775371103, -0.1736481737037],
      "ImagePositionPatient": [-879.49686384201, -873.62990392367, 241.29594278602],
      "ImageType": [
        "ORIGINAL",
        "PRIMARY",
        "DIFFUSION",
        "NONE",
        "MB",
        "ND",
        "MOSAIC"
],
      "ImagedNucleus": "1H",
      "ImagingFrequency": 123.258827,
      "InPlanePhaseEncodingDirection": "COL",
      "MRAcquisitionType": "2D",
      "MagneticFieldStrength": 3.0,
      "Manufacturer": "SIEMENS",
      "ManufacturerModelName": "Prisma_fit",
      "Modality": "MR",
      "NominalInterval": 0,
      "NumberOfAverages": 1.0,
      "NumberOfPhaseEncodingSteps": 83,
      "PercentPhaseFieldOfView": 100.0,
      "PercentSampling": 100.0,
      "PerformedProcedureStepStartTime": "151012.737000",
      "PhotometricInterpretation": "MONOCHROME2",
      "PixelBandwidth": 1685.0,
      "PixelRepresentation": 0,
      "PixelSpacing": [2.0, 2.0],
      "ProtocolName": "dMRI_dir106_PA_test_cmrr",
      "RepetitionTime": 2243.0,
      "Rows": 880,
      "SAR": 0.14426682803035,
      "SamplesPerPixel": 1,
      "ScanOptions": [
        "PFP",
        "EXT"
],
      "ScanningSequence": "EP",
      "SequenceVariant": [
        "SK",
        "SS"
],
      "SeriesDescription": "dMRI_dir106_PA_test_cmrr",
      "SeriesNumber": 20,
      "SeriesTime": "160552.144000",
      "SliceLocation": 85.925878085396,
      "SliceThickness": 2.0,
      "SmallestImagePixelValue": 0,
      "SoftwareVersions": "syngo MR E11",
      "SpacingBetweenSlices": 2.0000000017979,
      "SpecificCharacterSet": "ISO_IR 100",
      "StudyID": "1",
      "StudyTime": "151012.660000",
      "TransmitCoilName": "Body",
      "VariableFlipAngleFlag": "N",
      "WindowCenterWidthExplanation": "Algo1",
      "dBdt": 0.0},
    "slices": {}
  },
  "time": {
    "samples": {
      "AcquisitionNumber": [1, 2, 3, 4, 5, 6, 7, 8, 9, 10, 11, 12, 13, 14, 15, 16, 17, 18, 19, 20, 21, 22, 23, 24, 25, 26, 27, 28, 29, 30, 31, 32, 33, 34, 35, 36, 37, 38, 39, 40, 41, 42, 43, 44, 45, 46, 47, 48, 49, 50, 51, 52, 53, 54, 55, 56, 57, 58, 59, 60, 61, 62, 63, 64, 65, 66, 67, 68, 69, 70, 71, 72, 73, 74, 75, 76, 77, 78, 79, 80, 81, 82, 83, 84, 85, 86, 87, 88, 89, 90, 91, 92, 93, 94, 95, 96, 97, 98, 99, 100, 101, 102, 103, 104, 105, 106, 107],
      "AcquisitionTime": ["160451.947500", "160454.190000", "160456.435000", "160458.677500", "160500.920000", "160503.162500", "160505.405000", "160507.650000", "160509.892500", "160512.135000", "160514.377500", "160516.620000", "160518.865000", "160521.107500", "160523.350000", "160525.592500", "160527.835000", "160530.080000", "160532.322500", "160534.565000", "160536.807500", "160539.050000", "160541.295000", "160543.537500", "160545.780000", "160548.022500", "160550.265000", "160552.510000", "160554.752500", "160556.995000", "160559.237500", "160601.480000", "160603.725000", "160605.967500", "160608.210000", "160610.452500", "160612.695000", "160614.940000", "160617.182500", "160619.425000", "160621.667500", "160623.910000", "160626.155000", "160628.397500", "160630.640000", "160632.882500", "160635.125000", "160637.370000", "160639.612500", "160641.855000", "160644.097500", "160646.340000", "160648.585000", "160650.827500", "160653.070000", "160655.312500", "160657.555000", "160659.800000", "160702.042500", "160704.285000", "160706.527500", "160708.770000", "160711.015000", "160713.257500", "160715.500000", "160717.742500", "160719.985000", "160722.230000", "160724.472500", "160726.715000", "160728.957500", "160731.200000", "160733.445000", "160735.687500", "160737.930000", "160740.172500", "160742.415000", "160744.660000", "160746.902500", "160749.145000", "160751.387500", "160753.630000", "160755.875000", "160758.117500", "160800.360000", "160802.602500", "160804.845000", "160807.090000", "160809.332500", "160811.575000", "160813.817500", "160816.060000", "160818.305000", "160820.547500", "160822.790000", "160825.032500", "160827.275000", "160829.520000", "160831.762500", "160834.005000", "160836.247500", "160838.490000", "160840.735000", "160842.977500", "160845.220000", "160847.462500", "160849.705000"],
      "ContentTime": ["160552.147000", "160552.151000", "160552.154000", "160552.157000", "160552.160000", "160552.163000", "160552.166000", "160552.169000", "160552.172000", "160552.175000", "160552.178000", "160552.181000", "160552.184000", "160552.187000", "160552.190000", "160552.194000", "160552.197000", "160552.200000", "160552.203000", "160552.206000", "160552.209000", "160552.212000", "160552.215000", "160552.218000", "160552.221000", "160552.224000", "160552.227000", "160652.108000", "160652.122000", "160652.125000", "160652.129000", "160652.131000", "160652.134000", "160652.138000", "160652.141000", "160652.144000", "160652.147000", "160652.150000", "160652.153000", "160652.156000", "160652.159000", "160652.162000", "160652.165000", "160652.168000", "160652.171000", "160652.174000", "160652.177000", "160652.180000", "160652.183000", "160652.186000", "160652.189000", "160652.192000", "160652.195000", "160752.108000", "160752.111000", "160752.114000", "160752.117000", "160752.121000", "160752.124000", "160752.127000", "160752.130000", "160752.133000", "160752.136000", "160752.139000", "160752.142000", "160752.145000", "160752.148000", "160752.151000", "160752.154000", "160752.157000", "160752.160000", "160752.163000", "160752.166000", "160752.169000", "160752.172000", "160752.175000", "160752.178000", "160752.181000", "160752.184000", "160752.187000", "160852.107000", "160852.110000", "160852.113000", "160852.116000", "160852.119000", "160852.122000", "160852.144000", "160852.147000", "160852.150000", "160852.153000", "160852.156000", "160852.159000", "160852.162000", "160852.166000", "160852.169000", "160852.172000", "160852.175000", "160852.178000", "160852.181000", "160852.184000", "160852.187000", "160852.190000", "160852.193000", "160852.196000", "160852.199000", "160852.202000", "160852.205000"],
      "InstanceCreationTime": ["160552.147000", "160552.151000", "160552.154000", "160552.157000", "160552.160000", "160552.163000", "160552.166000", "160552.169000", "160552.172000", "160552.175000", "160552.178000", "160552.181000", "160552.184000", "160552.187000", "160552.190000", "160552.194000", "160552.197000", "160552.200000", "160552.203000", "160552.206000", "160552.209000", "160552.212000", "160552.215000", "160552.218000", "160552.221000", "160552.224000", "160552.227000", "160652.108000", "160652.122000", "160652.125000", "160652.129000", "160652.131000", "160652.134000", "160652.138000", "160652.141000", "160652.144000", "160652.147000", "160652.150000", "160652.153000", "160652.156000", "160652.159000", "160652.162000", "160652.165000", "160652.168000", "160652.171000", "160652.174000", "160652.177000", "160652.180000", "160652.183000", "160652.186000", "160652.189000", "160652.192000", "160652.195000", "160752.108000", "160752.111000", "160752.114000", "160752.117000", "160752.121000", "160752.124000", "160752.127000", "160752.130000", "160752.133000", "160752.136000", "160752.139000", "160752.142000", "160752.145000", "160752.148000", "160752.151000", "160752.154000", "160752.157000", "160752.160000", "160752.163000", "160752.166000", "160752.169000", "160752.172000", "160752.175000", "160752.178000", "160752.181000", "160752.184000", "160752.187000", "160852.107000", "160852.110000", "160852.113000", "160852.116000", "160852.119000", "160852.122000", "160852.144000", "160852.147000", "160852.150000", "160852.153000", "160852.156000", "160852.159000", "160852.162000", "160852.166000", "160852.169000", "160852.172000", "160852.175000", "160852.178000", "160852.181000", "160852.184000", "160852.187000", "160852.190000", "160852.193000", "160852.196000", "160852.199000", "160852.202000", "160852.205000"],
      "InstanceNumber": [1, 2, 3, 4, 5, 6, 7, 8, 9, 10, 11, 12, 13, 14, 15, 16, 17, 18, 19, 20, 21, 22, 23, 24, 25, 26, 27, 28, 29, 30, 31, 32, 33, 34, 35, 36, 37, 38, 39, 40, 41, 42, 43, 44, 45, 46, 47, 48, 49, 50, 51, 52, 53, 54, 55, 56, 57, 58, 59, 60, 61, 62, 63, 64, 65, 66, 67, 68, 69, 70, 71, 72, 73, 74, 75, 76, 77, 78, 79, 80, 81, 82, 83, 84, 85, 86, 87, 88, 89, 90, 91, 92, 93, 94, 95, 96, 97, 98, 99, 100, 101, 102, 103, 104, 105, 106, 107],
      "LargestImagePixelValue": [61951, 60527, 17238, 8969, 16294, 16938, 27460, 10557, 8939, 9241, 17340, 27227, 9060, 8639, 9158, 8693, 16720, 9965, 10525, 9759, 9551, 65535, 15944, 10767, 17335, 16297, 8223, 9133, 8865, 8894, 27126, 8887, 18449, 8564, 8733, 27237, 9875, 9320, 15708, 9475, 8290, 51893, 10451, 8489, 9148, 29161, 18942, 8741, 9176, 16828, 8347, 16249, 17399, 9727, 29393, 16075, 8374, 18653, 10137, 9530, 16569, 52568, 16418, 8630, 10340, 8656, 10360, 29432, 16491, 15841, 9355, 11422, 10431, 11390, 17522, 9564, 10847, 8233, 16260, 15813, 8666, 61250, 16968, 10051, 8446, 16979, 16407, 8972, 16832, 10814, 11091, 9279, 18438, 8795, 9800, 10814, 27660, 17574, 8640, 16733, 16005, 65015, 8750, 8668, 16712, 8894, 12131],
      "SequenceName": [
 "ep_b0",
 "ep_b0",
 "ep_b1000#2",
 "ep_b2000#3",
 "ep_b1000#4",
 "ep_b1000#5",
 "ep_b300#6",
 "ep_b2000#7",
 "ep_b2000#8",
 "ep_b2000#9",
 "ep_b1000#10",
 "ep_b300#11",
 "ep_b2000#12",
 "ep_b2000#13",
 "ep_b2000#14",
 "ep_b2000#15",
 "ep_b1000#16",
 "ep_b2000#17",
 "ep_b2000#18",
 "ep_b2000#19",
 "ep_b2000#20",
 "ep_b0",
 "ep_b1000#22",
 "ep_b2000#23",
 "ep_b1000#24",
 "ep_b1000#25",
 "ep_b2000#26",
 "ep_b2000#27",
 "ep_b2000#28",
 "ep_b2000#29",
 "ep_b300#30",
 "ep_b2000#31",
 "ep_b1000#32",
 "ep_b2000#33",
 "ep_b2000#34",
 "ep_b300#35",
 "ep_b2000#36",
 "ep_b2000#37",
 "ep_b1000#38",
 "ep_b2000#39",
 "ep_b2000#40",
 "ep_b0",
 "ep_b2000#42",
 "ep_b2000#43",
 "ep_b2000#44",
 "ep_b300#45",
 "ep_b1000#46",
 "ep_b2000#47",
 "ep_b2000#48",
 "ep_b1000#49",
 "ep_b2000#50",
 "ep_b1000#51",
 "ep_b1000#52",
 "ep_b2000#53",
 "ep_b300#54",
 "ep_b1000#55",
 "ep_b2000#56",
 "ep_b1000#57",
 "ep_b2000#58",
 "ep_b2000#59",
 "ep_b1000#60",
 "ep_b0",
 "ep_b1000#62",
 "ep_b2000#63",
 "ep_b2000#64",
 "ep_b2000#65",
 "ep_b2000#66",
 "ep_b300#67",
 "ep_b1000#68",
 "ep_b1000#69",
 "ep_b2000#70",
 "ep_b2000#71",
 "ep_b2000#72",
 "ep_b2000#73",
 "ep_b1000#74",
 "ep_b2000#75",
 "ep_b2000#76",
 "ep_b2000#77",
 "ep_b1000#78",
 "ep_b1000#79",
 "ep_b2000#80",
 "ep_b0",
 "ep_b1000#82",
 "ep_b2000#83",
 "ep_b2000#84",
 "ep_b1000#85",
 "ep_b1000#86",
 "ep_b2000#87",
 "ep_b1000#88",
 "ep_b2000#89",
 "ep_b2000#90",
 "ep_b2000#91",
 "ep_b1000#92",
 "ep_b2000#93",
 "ep_b2000#94",
 "ep_b2000#95",
 "ep_b300#96",
 "ep_b1000#97",
 "ep_b2000#98",
 "ep_b1000#99",
 "ep_b1000#100",
 "ep_b0",
 "ep_b2000#102",
 "ep_b2000#103",
 "ep_b1000#104",
 "ep_b2000#105",
 "ep_b2000#106"
],
      "TriggerTime": [13890.0, 16132.5, 18375.0, 20620.0, 22862.5, 25105.0, 27347.5, 29590.0, 31835.0, 34077.5, 36320.0, 38562.5, 40805.0, 43050.0, 45292.5, 47535.0, 49777.5, 52020.0, 54265.0, 56507.5, 58750.0, 60992.5, 63235.0, 65480.0, 67722.5, 69965.0, 72207.5, 74450.0, 76695.0, 78937.5, 81180.0, 83422.5, 85665.0, 87910.0, 90152.5, 92395.0, 94637.5, 96880.0, 99125.0, 101367.5, 103610.0, 105852.5, 108095.0, 110340.0, 112582.5, 114825.0, 117067.5, 119310.0, 121555.0, 123797.5, 126040.0, 128282.5, 130525.0, 132770.0, 135012.5, 137255.0, 139497.5, 141740.0, 143985.0, 146227.5, 148470.0, 150712.5, 152955.0, 155200.0, 157442.5, 159685.0, 161927.5, 164170.0, 166415.0, 168657.5, 170900.0, 173142.5, 175385.0, 177630.0, 179872.5, 182115.0, 184357.5, 186600.0, 188845.0, 191087.5, 193330.0, 195572.5, 197815.0, 200060.0, 202302.5, 204545.0, 206787.5, 209030.0, 211275.0, 213517.5, 215760.0, 218002.5, 220245.0, 222490.0, 224732.5, 226975.0, 229217.5, 231460.0, 233705.0, 235947.5, 238190.0, 240432.5, 242675.0, 244920.0, 247162.5, 249405.0, 251647.5],
      "WindowCenter": [7084.0, 7086.0, 3441.0, 2188.0, 3377.0, 3359.0, 5158.0, 2194.0, 2208.0, 2187.0, 3394.0, 5123.0, 2155.0, 2148.0, 2203.0, 2187.0, 3366.0, 2196.0, 2220.0, 2197.0, 2166.0, 7041.0, 3393.0, 2239.0, 3443.0, 3351.0, 2186.0, 2192.0, 2155.0, 2142.0, 5092.0, 2177.0, 3369.0, 2171.0, 2171.0, 5129.0, 2174.0, 2155.0, 3322.0, 2203.0, 2150.0, 6944.0, 2255.0, 2206.0, 2211.0, 5135.0, 3385.0, 2149.0, 2210.0, 3321.0, 2157.0, 3354.0, 3377.0, 2242.0, 5121.0, 3342.0, 2170.0, 3397.0, 2167.0, 2250.0, 3409.0, 6966.0, 3394.0, 2154.0, 2267.0, 2140.0, 2168.0, 5190.0, 3368.0, 3349.0, 2204.0, 2252.0, 2232.0, 2216.0, 3310.0, 2223.0, 2218.0, 2131.0, 3307.0, 3363.0, 2160.0, 7004.0, 3348.0, 2172.0, 2141.0, 3353.0, 3400.0, 2152.0, 3324.0, 2197.0, 2235.0, 2154.0, 3363.0, 2142.0, 2249.0, 2264.0, 5126.0, 3389.0, 2183.0, 3352.0, 3315.0, 6988.0, 2162.0, 2137.0, 3339.0, 2150.0, 2281.0],
      "WindowWidth": [15347.0, 15323.0, 7922.0, 5383.0, 7794.0, 7760.0, 11331.0, 5381.0, 5407.0, 5382.0, 7847.0, 11252.0, 5307.0, 5278.0, 5421.0, 5377.0, 7772.0, 5387.0, 5465.0, 5392.0, 5328.0, 15255.0, 7835.0, 5479.0, 7933.0, 7745.0, 5371.0, 5377.0, 5310.0, 5283.0, 11222.0, 5340.0, 7802.0, 5339.0, 5345.0, 11280.0, 5361.0, 5305.0, 7683.0, 5423.0, 5288.0, 15035.0, 5519.0, 5399.0, 5424.0, 11266.0, 7837.0, 5286.0, 5418.0, 7708.0, 5309.0, 7766.0, 7807.0, 5493.0, 11255.0, 7737.0, 5339.0, 7859.0, 5328.0, 5492.0, 7842.0, 15090.0, 7833.0, 5304.0, 5536.0, 5275.0, 5332.0, 11384.0, 7759.0, 7735.0, 5391.0, 5501.0, 5486.0, 5441.0, 7671.0, 5442.0, 5459.0, 5262.0, 7660.0, 7763.0, 5323.0, 15148.0, 7743.0, 5353.0, 5277.0, 7753.0, 7840.0, 5299.0, 7689.0, 5396.0, 5498.0, 5305.0, 7807.0, 5283.0, 5486.0, 5521.0, 11280.0, 7819.0, 5360.0, 7757.0, 7681.0, 15114.0, 5306.0, 5266.0, 7734.0, 5287.0, 5565.0]
    },
    "slices": {}
  }
}