{
  "AcquisitionMatrixPE": 110,
  "AcquisitionNumber": 1,
  "AcquisitionTime": "12:28:15.865000",
  "BandwidthPerPixelPhaseEncode": 12.987,
  "BaseResolution": 110,
  "BodyPartExamined": "BRAIN",
  "ConsistencyInfo": "N4_VE11C_LATEST_20160120",
  "ConversionSoftware": "dcm2niix",
  "ConversionSoftwareVersion": "v1.0.20190902",
  "DerivedVendorReportedEchoSpacing": 0.000700001,
  "DeviceSerialNumber": "167006",
  "DiffusionScheme": "Monopolar",
  "DwellTime": 2.7e-06,
  "EchoTime": 0.0816,
  "EchoTrainLength": 83,
  "EffectiveEchoSpacing": 0.000700001,
  "FlipAngle": 78,
  "ImageComments": "Unaliased_MB3_PE3_LB_SENSE1",
  "ImageOrientationPatientDICOM": [1, 0, 0, 0, 0.906308, -0.422618],
  "ImageType": [
    "ORIGINAL",
    "PRIMARY",
    "DIFFUSION",
    "NONE",
    "MB",
    "ND",
    "MOSAIC"
],
  "ImagingFrequency": 123.259,
  "InPlanePhaseEncodingDirectionDICOM": "COL",
  "InstitutionAddress": "Chemin_Queen-Mary_4565_Montreal_District_CA_H3W_1W5",
  "InstitutionName": "IUGM",
  "InstitutionalDepartmentName": "Department",
  "MRAcquisitionType": "2D",
  "MagneticFieldStrength": 3,
  "Manufacturer": "Siemens",
  "ManufacturersModelName": "Prisma_fit",
  "Modality": "MR",
  "MultibandAccelerationFactor": 3,
  "PartialFourier": 0.75,
  "PatientPosition": "HFS",
  "PercentPhaseFOV": 100,
  "PhaseEncodingDirection": "j",
  "PhaseEncodingSteps": 83,
  "PhaseResolution": 1,
  "PixelBandwidth": 1685,
  "ProcedureStepDescription": "hcptrt_generic",
  "ProtocolName": "dMRI_dir98_PA_test_cmrr",
  "PulseSequenceDetails": "%CustomerSeq%_cmrr_mbep2d_diff",
  "ReceiveCoilActiveElements": "HC1-6",
  "ReceiveCoilName": "HeadNeck_64",
  "ReconMatrixPE": 110,
  "RepetitionTime": 2.334,
  "SAR": 0.119282,
  "ScanOptions": "PFP_EXT",
  "ScanningSequence": "EP",
  "SequenceName": "ep_b5#1",
  "SequenceVariant": "SK_SS",
  "SeriesDescription": "dMRI_dir98_PA_test_cmrr",
  "SeriesNumber": 11,
  "ShimSetting": [589, -7263, -8837, 574, -34, -326, 165, 41],
  "SliceThickness": 2,
  "SliceTiming": [0, 1.2175, 0.1225, 1.34, 0.2425, 1.46, 0.365, 1.5825, 0.4875, 1.705, 0.6075, 1.8275, 0.73, 1.9475, 0.8525, 2.07, 0.975, 2.1925, 1.095, 0, 1.2175, 0.1225, 1.34, 0.2425, 1.46, 0.365, 1.5825, 0.4875, 1.705, 0.6075, 1.8275, 0.73, 1.9475, 0.8525, 2.07, 0.975, 2.1925, 1.095, 0, 1.2175, 0.1225, 1.34, 0.2425, 1.46, 0.365, 1.5825, 0.4875, 1.705, 0.6075, 1.8275, 0.73, 1.9475, 0.8525, 2.07, 0.975, 2.1925, 1.095],
  "SoftwareVersions": "syngo_MR_E11",
  "SpacingBetweenSlices": 2,
  "StationName": "MRC35049",
  "TotalReadoutTime": 0.0763001,
  "TxRefAmp": 218.321,
  "WipMemBlock": "4c2d2aa2-0dbf-4bb3-8be6-384524d4aa02||Sequence: R016 ve11c/master r/e634e98; Dec 19 2017 11:11:25 by eja",
  "dcmmeta_affine": [
    [-2.0, 0.0, 0.0, 105.88240814208984],
    [0.0, 1.8126155138015747, -0.8452365398406982, -68.46102142333984],
    [0.0, 0.8452365398406982, 1.8126155138015747, -67.42620086669922],
    [0.0, 0.0, 0.0, 1.0]
],
  "dcmmeta_reorient_transform": [
    [0.0, -1.0, 0.0, 109.0],
    [1.0, 0.0, 0.0, 0.0],
    [0.0, 0.0, 1.0, 0.0],
    [0.0, 0.0, 0.0, 1.0]
],
  "dcmmeta_shape": [110, 110, 57, 99],
  "dcmmeta_slice_dim": 2,
  "dcmmeta_version": 0.6,
  "global": {
    "const": {
      "AcquisitionMatrix": [110, 0, 0, 110],
      "AngioFlag": "N",
      "BitsAllocated": 16,
      "BitsStored": 16,
      "BodyPartExamined": "BRAIN",
      "CardiacNumberOfImages": 1,
      "Columns": 880,
      "EchoNumbers": 1,
      "EchoTime": 81.6,
      "EchoTrainLength": 83,
      "FlipAngle": 78.0,
      "HighBit": 15,
      "ImageOrientationPatient": [1.0, 0.0, 0.0, 0.0, 0.90630778227357, -0.4226182719552],
      "ImagePositionPatient": [-875.88240623474, -826.97106400743, 350.12065303574],
      "ImageType": [
        "ORIGINAL",
        "PRIMARY",
        "DIFFUSION",
        "NONE",
        "MB",
        "ND",
        "MOSAIC"
],
      "ImagedNucleus": "1H",
      "ImagingFrequency": 123.259403,
      "InPlanePhaseEncodingDirection": "COL",
      "MRAcquisitionType": "2D",
      "MagneticFieldStrength": 3.0,
      "Manufacturer": "SIEMENS",
      "ManufacturerModelName": "Prisma_fit",
      "Modality": "MR",
      "NominalInterval": 0,
      "NumberOfAverages": 1.0,
      "NumberOfPhaseEncodingSteps": 83,
      "PercentPhaseFieldOfView": 100.0,
      "PercentSampling": 100.0,
      "PerformedProcedureStepStartTime": "114528.955000",
      "PhotometricInterpretation": "MONOCHROME2",
      "PixelBandwidth": 1685.0,
      "PixelRepresentation": 0,
      "PixelSpacing": [2.0, 2.0],
      "ProtocolName": "dMRI_dir98_PA_test_cmrr",
      "RepetitionTime": 2334.0,
      "Rows": 880,
      "SAR": 0.11928218484327,
      "SamplesPerPixel": 1,
      "ScanOptions": [
        "PFP",
        "EXT"
],
      "ScanningSequence": "EP",
      "SequenceVariant": [
        "SK",
        "SS"
],
      "SeriesDescription": "dMRI_dir98_PA_test_cmrr",
      "SeriesNumber": 11,
      "SeriesTime": "122919.635000",
      "SliceLocation": -32.176009446735,
      "SliceThickness": 2.0,
      "SmallestImagePixelValue": 0,
      "SoftwareVersions": "syngo MR E11",
      "SpacingBetweenSlices": 1.9999999841977,
      "SpecificCharacterSet": "ISO_IR 100",
      "StudyID": "1",
      "StudyTime": "114528.890000",
      "TransmitCoilName": "Body",
      "VariableFlipAngleFlag": "N",
      "WindowCenterWidthExplanation": "Algo1",
      "dBdt": 0.0},
    "slices": {}
  },
  "time": {
    "samples": {
      "AcquisitionNumber": [1, 2, 3, 4, 5, 6, 7, 8, 9, 10, 11, 12, 13, 14, 15, 16, 17, 18, 19, 20, 21, 22, 23, 24, 25, 26, 27, 28, 29, 30, 31, 32, 33, 34, 35, 36, 37, 38, 39, 40, 41, 42, 43, 44, 45, 46, 47, 48, 49, 50, 51, 52, 53, 54, 55, 56, 57, 58, 59, 60, 61, 62, 63, 64, 65, 66, 67, 68, 69, 70, 71, 72, 73, 74, 75, 76, 77, 78, 79, 80, 81, 82, 83, 84, 85, 86, 87, 88, 89, 90, 91, 92, 93, 94, 95, 96, 97, 98, 99],
      "AcquisitionTime": ["122815.865000", "122818.200000", "122820.532500", "122822.867500", "122825.200000", "122827.535000", "122829.870000", "122832.202500", "122834.537500", "122836.870000", "122839.205000", "122841.540000", "122843.872500", "122846.207500", "122848.540000", "122850.875000", "122853.210000", "122855.542500", "122857.877500", "122900.210000", "122902.545000", "122904.880000", "122907.212500", "122909.547500", "122911.880000", "122914.215000", "122916.550000", "122918.882500", "122921.217500", "122923.550000", "122925.885000", "122928.220000", "122930.552500", "122932.887500", "122935.220000", "122937.555000", "122939.890000", "122942.222500", "122944.557500", "122946.890000", "122949.225000", "122951.560000", "122953.892500", "122956.227500", "122958.560000", "123000.895000", "123003.230000", "123005.562500", "123007.897500", "123010.230000", "123012.565000", "123014.900000", "123017.232500", "123019.567500", "123021.900000", "123024.235000", "123026.570000", "123028.902500", "123031.237500", "123033.570000", "123035.905000", "123038.240000", "123040.572500", "123042.907500", "123045.240000", "123047.575000", "123049.910000", "123052.242500", "123054.577500", "123056.910000", "123059.245000", "123101.580000", "123103.912500", "123106.247500", "123108.580000", "123110.915000", "123113.250000", "123115.582500", "123117.917500", "123120.250000", "123122.585000", "123124.920000", "123127.252500", "123129.587500", "123131.920000", "123134.255000", "123136.590000", "123138.922500", "123141.257500", "123143.590000", "123145.925000", "123148.260000", "123150.592500", "123152.927500", "123155.260000", "123157.595000", "123159.930000", "123202.262500", "123204.597500"],
      "ContentTime": ["122919.637000", "122919.641000", "122919.644000", "122919.647000", "122919.650000", "122919.653000", "122919.657000", "122919.660000", "122919.663000", "122919.666000", "122919.669000", "122919.674000", "122919.677000", "122919.680000", "122919.683000", "122919.687000", "122919.690000", "122919.693000", "122919.696000", "122919.699000", "122919.702000", "122919.705000", "122919.708000", "122919.711000", "122919.714000", "122919.717000", "123019.599000", "123019.603000", "123019.606000", "123019.616000", "123019.619000", "123019.623000", "123019.626000", "123019.629000", "123019.632000", "123019.635000", "123019.638000", "123019.641000", "123019.644000", "123019.647000", "123019.650000", "123019.653000", "123019.656000", "123019.659000", "123019.662000", "123019.665000", "123019.668000", "123019.672000", "123019.675000", "123019.678000", "123019.681000", "123019.684000", "123119.598000", "123119.601000", "123119.604000", "123119.608000", "123119.611000", "123119.614000", "123119.617000", "123119.620000", "123119.623000", "123119.626000", "123119.629000", "123119.632000", "123119.635000", "123119.638000", "123119.641000", "123119.645000", "123119.648000", "123119.651000", "123119.654000", "123119.657000", "123119.660000", "123119.663000", "123119.666000", "123119.669000", "123119.672000", "123119.675000", "123209.766000", "123209.775000", "123209.778000", "123209.781000", "123209.784000", "123209.792000", "123209.795000", "123209.798000", "123209.801000", "123209.804000", "123209.807000", "123209.810000", "123209.813000", "123209.817000", "123209.820000", "123209.823000", "123209.826000", "123209.829000", "123209.832000", "123209.835000", "123209.838000"],
      "InstanceCreationTime": ["122919.637000", "122919.641000", "122919.644000", "122919.647000", "122919.650000", "122919.653000", "122919.657000", "122919.660000", "122919.663000", "122919.666000", "122919.669000", "122919.674000", "122919.677000", "122919.680000", "122919.683000", "122919.687000", "122919.690000", "122919.693000", "122919.696000", "122919.699000", "122919.702000", "122919.705000", "122919.708000", "122919.711000", "122919.714000", "122919.717000", "123019.599000", "123019.603000", "123019.606000", "123019.616000", "123019.619000", "123019.623000", "123019.626000", "123019.629000", "123019.632000", "123019.635000", "123019.638000", "123019.641000", "123019.644000", "123019.647000", "123019.650000", "123019.653000", "123019.656000", "123019.659000", "123019.662000", "123019.665000", "123019.668000", "123019.672000", "123019.675000", "123019.678000", "123019.681000", "123019.684000", "123119.598000", "123119.601000", "123119.604000", "123119.608000", "123119.611000", "123119.614000", "123119.617000", "123119.620000", "123119.623000", "123119.626000", "123119.629000", "123119.632000", "123119.635000", "123119.638000", "123119.641000", "123119.645000", "123119.648000", "123119.651000", "123119.654000", "123119.657000", "123119.660000", "123119.663000", "123119.666000", "123119.669000", "123119.672000", "123119.675000", "123209.766000", "123209.775000", "123209.778000", "123209.781000", "123209.784000", "123209.792000", "123209.795000", "123209.798000", "123209.801000", "123209.804000", "123209.807000", "123209.810000", "123209.813000", "123209.817000", "123209.820000", "123209.823000", "123209.826000", "123209.829000", "123209.832000", "123209.835000", "123209.838000"],
      "InstanceNumber": [1, 2, 3, 4, 5, 6, 7, 8, 9, 10, 11, 12, 13, 14, 15, 16, 17, 18, 19, 20, 21, 22, 23, 24, 25, 26, 27, 28, 29, 30, 31, 32, 33, 34, 35, 36, 37, 38, 39, 40, 41, 42, 43, 44, 45, 46, 47, 48, 49, 50, 51, 52, 53, 54, 55, 56, 57, 58, 59, 60, 61, 62, 63, 64, 65, 66, 67, 68, 69, 70, 71, 72, 73, 74, 75, 76, 77, 78, 79, 80, 81, 82, 83, 84, 85, 86, 87, 88, 89, 90, 91, 92, 93, 94, 95, 96, 97, 98, 99],
      "LargestImagePixelValue": [41829, 41439, 13325, 5738, 11912, 6719, 12580, 7356, 12353, 5298, 11989, 6674, 12609, 5799, 11394, 7104, 11607, 42263, 7505, 12674, 5056, 12568, 5906, 12555, 7233, 13241, 6663, 12675, 6084, 12857, 7365, 12728, 6800, 41358, 13253, 6535, 13883, 6420, 12531, 5159, 12697, 6756, 12419, 8925, 11932, 5610, 13296, 7957, 13815, 41744, 6914, 13017, 5680, 13059, 5627, 12776, 6945, 12584, 5741, 13628, 6354, 11386, 6653, 11334, 5958, 39902, 13416, 8815, 12570, 4938, 12951, 7310, 10978, 6621, 14279, 6021, 13154, 6869, 12490, 5730, 13567, 40677, 6512, 12940, 6195, 12402, 7242, 12551, 5874, 12394, 6580, 11701, 5779, 12044, 7742, 12054, 6220, 12300, 6760],
      "SequenceName": [
 "ep_b5#1",
 "ep_b5#1",
 "ep_b1490#2",
 "ep_b2990#3",
 "ep_b1495#4",
 "ep_b3005#5",
 "ep_b1500#6",
 "ep_b2985#7",
 "ep_b1495#8",
 "ep_b3005#9",
 "ep_b1490#10",
 "ep_b2995#11",
 "ep_b1495#12",
 "ep_b2990#13",
 "ep_b1500#14",
 "ep_b2985#15",
 "ep_b1500#16",
 "ep_b5#17",
 "ep_b3005#18",
 "ep_b1495#19",
 "ep_b2995#20",
 "ep_b1495#21",
 "ep_b3000#22",
 "ep_b1495#23",
 "ep_b3000#24",
 "ep_b1490#25",
 "ep_b2985#26",
 "ep_b1505#27",
 "ep_b2990#28",
 "ep_b1495#29",
 "ep_b3000#30",
 "ep_b1490#31",
 "ep_b3000#32",
 "ep_b5#33",
 "ep_b1505#34",
 "ep_b3000#35",
 "ep_b1490#36",
 "ep_b2985#37",
 "ep_b1495#38",
 "ep_b2995#39",
 "ep_b1500#40",
 "ep_b2995#41",
 "ep_b1500#42",
 "ep_b2990#43",
 "ep_b1495#44",
 "ep_b3000#45",
 "ep_b1495#46",
 "ep_b3000#47",
 "ep_b1490#48",
 "ep_b5#49",
 "ep_b3000#50",
 "ep_b1495#51",
 "ep_b2995#52",
 "ep_b1505#53",
 "ep_b2995#54",
 "ep_b1490#55",
 "ep_b2990#56",
 "ep_b1490#57",
 "ep_b2995#58",
 "ep_b1500#59",
 "ep_b3000#60",
 "ep_b1500#61",
 "ep_b2985#62",
 "ep_b1500#63",
 "ep_b2990#64",
 "ep_b5#65",
 "ep_b1505#66",
 "ep_b3005#67",
 "ep_b1495#68",
 "ep_b3000#69",
 "ep_b1505#70",
 "ep_b3005#71",
 "ep_b1500#72",
 "ep_b3005#73",
 "ep_b1495#74",
 "ep_b2995#75",
 "ep_b1495#76",
 "ep_b2995#77",
 "ep_b1500#78",
 "ep_b3000#79",
 "ep_b1490#80",
 "ep_b5#81",
 "ep_b2990#82",
 "ep_b1500#83",
 "ep_b2985#84",
 "ep_b1495#85",
 "ep_b2995#86",
 "ep_b1495#87",
 "ep_b2990#88",
 "ep_b1490#89",
 "ep_b2985#90",
 "ep_b1495#91",
 "ep_b2995#92",
 "ep_b1495#93",
 "ep_b3005#94",
 "ep_b1495#95",
 "ep_b2990#96",
 "ep_b1500#97",
 "ep_b3000#98"
],
      "TriggerTime": [13297.5, 15630.0, 17965.0, 20300.0, 22632.5, 24967.5, 27300.0, 29635.0, 31970.0, 34302.5, 36637.5, 38970.0, 41305.0, 43640.0, 45972.5, 48307.5, 50640.0, 52975.0, 55310.0, 57642.5, 59977.5, 62310.0, 64645.0, 66980.0, 69312.5, 71647.5, 73980.0, 76315.0, 78650.0, 80982.5, 83317.5, 85650.0, 87985.0, 90320.0, 92652.5, 94987.5, 97320.0, 99655.0, 101990.0, 104322.5, 106657.5, 108990.0, 111325.0, 113660.0, 115992.5, 118327.5, 120660.0, 122995.0, 125330.0, 127662.5, 129997.5, 132330.0, 134665.0, 137000.0, 139332.5, 141667.5, 144000.0, 146335.0, 148670.0, 151002.5, 153337.5, 155670.0, 158005.0, 160340.0, 162672.5, 165007.5, 167340.0, 169675.0, 172010.0, 174342.5, 176677.5, 179010.0, 181345.0, 183680.0, 186012.5, 188347.5, 190680.0, 193015.0, 195350.0, 197682.5, 200017.5, 202350.0, 204685.0, 207020.0, 209352.5, 211687.5, 214020.0, 216355.0, 218690.0, 221022.5, 223357.5, 225690.0, 228025.0, 230360.0, 232692.5, 235027.5, 237360.0, 239695.0, 242030.0],
      "WindowCenter": [6654.0, 6663.0, 2697.0, 1588.0, 2711.0, 1611.0, 2674.0, 1679.0, 2721.0, 1517.0, 2643.0, 1651.0, 2717.0, 1644.0, 2663.0, 1641.0, 2639.0, 6595.0, 1608.0, 2727.0, 1546.0, 2708.0, 1650.0, 2734.0, 1667.0, 2635.0, 1570.0, 2675.0, 1647.0, 2682.0, 1585.0, 2696.0, 1643.0, 6570.0, 2654.0, 1618.0, 2703.0, 1563.0, 2660.0, 1594.0, 2716.0, 1644.0, 2615.0, 1691.0, 2720.0, 1554.0, 2740.0, 1667.0, 2683.0, 6565.0, 1609.0, 2693.0, 1625.0, 2630.0, 1650.0, 2666.0, 1653.0, 2700.0, 1556.0, 2721.0, 1587.0, 2622.0, 1576.0, 2676.0, 1642.0, 6579.0, 2643.0, 1677.0, 2684.0, 1533.0, 2701.0, 1667.0, 2679.0, 1552.0, 2646.0, 1616.0, 2694.0, 1639.0, 2669.0, 1577.0, 2628.0, 6522.0, 1599.0, 2695.0, 1568.0, 2688.0, 1697.0, 2697.0, 1603.0, 2619.0, 1572.0, 2712.0, 1592.0, 2697.0, 1620.0, 2642.0, 1631.0, 2613.0, 1630.0],
      "WindowWidth": [14432.0, 14439.0, 6448.0, 4081.0, 6462.0, 4155.0, 6370.0, 4282.0, 6482.0, 3935.0, 6340.0, 4229.0, 6502.0, 4228.0, 6356.0, 4207.0, 6321.0, 14291.0, 4139.0, 6508.0, 3995.0, 6463.0, 4250.0, 6504.0, 4261.0, 6306.0, 4036.0, 6421.0, 4229.0, 6405.0, 4074.0, 6433.0, 4224.0, 14241.0, 6378.0, 4146.0, 6446.0, 4033.0, 6351.0, 4104.0, 6501.0, 4202.0, 6264.0, 4310.0, 6485.0, 4000.0, 6512.0, 4259.0, 6413.0, 14227.0, 4142.0, 6436.0, 4174.0, 6302.0, 4242.0, 6368.0, 4238.0, 6469.0, 4009.0, 6471.0, 4082.0, 6284.0, 4063.0, 6381.0, 4214.0, 14266.0, 6352.0, 4277.0, 6418.0, 3971.0, 6468.0, 4265.0, 6392.0, 3994.0, 6333.0, 4163.0, 6441.0, 4205.0, 6402.0, 4061.0, 6286.0, 14148.0, 4130.0, 6427.0, 4031.0, 6446.0, 4324.0, 6439.0, 4119.0, 6280.0, 4047.0, 6469.0, 4104.0, 6445.0, 4156.0, 6310.0, 4197.0, 6275.0, 4200.0]
    },
    "slices": {}
  }
}