{
  "AcquisitionMatrixPE": 110,
  "AcquisitionNumber": 1,
  "AcquisitionTime": "12:24:9.472500",
  "BandwidthPerPixelPhaseEncode": 12.987,
  "BaseResolution": 110,
  "BodyPartExamined": "BRAIN",
  "ConsistencyInfo": "N4_VE11C_LATEST_20160120",
  "ConversionSoftware": "dcm2niix",
  "ConversionSoftwareVersion": "v1.0.20190902",
  "DerivedVendorReportedEchoSpacing": 0.000700001,
  "DeviceSerialNumber": "167006",
  "DiffusionScheme": "Monopolar",
  "DwellTime": 2.7e-06,
  "EchoTime": 0.0816,
  "EchoTrainLength": 83,
  "EffectiveEchoSpacing": 0.000700001,
  "FlipAngle": 78,
  "ImageComments": "Unaliased_MB3_PE3_LB_SENSE1",
  "ImageOrientationPatientDICOM": [1, 0, 0, 0, 0.906308, -0.422618],
  "ImageType": [
    "ORIGINAL",
    "PRIMARY",
    "DIFFUSION",
    "NONE",
    "MB",
    "ND",
    "MOSAIC"
],
  "ImagingFrequency": 123.259,
  "InPlanePhaseEncodingDirectionDICOM": "COL",
  "InstitutionAddress": "Chemin_Queen-Mary_4565_Montreal_District_CA_H3W_1W5",
  "InstitutionName": "IUGM",
  "InstitutionalDepartmentName": "Department",
  "MRAcquisitionType": "2D",
  "MagneticFieldStrength": 3,
  "Manufacturer": "Siemens",
  "ManufacturersModelName": "Prisma_fit",
  "Modality": "MR",
  "MultibandAccelerationFactor": 3,
  "PartialFourier": 0.75,
  "PatientPosition": "HFS",
  "PercentPhaseFOV": 100,
  "PhaseEncodingDirection": "j-",
  "PhaseEncodingSteps": 83,
  "PhaseResolution": 1,
  "PixelBandwidth": 1685,
  "ProcedureStepDescription": "hcptrt_generic",
  "ProtocolName": "dMRI_dir98_AP_test_cmrr",
  "PulseSequenceDetails": "%CustomerSeq%_cmrr_mbep2d_diff",
  "ReceiveCoilActiveElements": "HC1-6",
  "ReceiveCoilName": "HeadNeck_64",
  "ReconMatrixPE": 110,
  "RepetitionTime": 2.334,
  "SAR": 0.119282,
  "ScanOptions": "PFP_EXT",
  "ScanningSequence": "EP",
  "SequenceName": "ep_b5#1",
  "SequenceVariant": "SK_SS",
  "SeriesDescription": "dMRI_dir98_AP_test_cmrr",
  "SeriesNumber": 7,
  "ShimSetting": [589, -7263, -8837, 574, -34, -326, 165, 41],
  "SliceThickness": 2,
  "SliceTiming": [0, 1.2175, 0.1225, 1.34, 0.245, 1.4625, 0.365, 1.585, 0.4875, 1.705, 0.61, 1.8275, 0.7325, 1.95, 0.8525, 2.07, 0.975, 2.1925, 1.0975, 0, 1.2175, 0.1225, 1.34, 0.245, 1.4625, 0.365, 1.585, 0.4875, 1.705, 0.61, 1.8275, 0.7325, 1.95, 0.8525, 2.07, 0.975, 2.1925, 1.0975, 0, 1.2175, 0.1225, 1.34, 0.245, 1.4625, 0.365, 1.585, 0.4875, 1.705, 0.61, 1.8275, 0.7325, 1.95, 0.8525, 2.07, 0.975, 2.1925, 1.0975],
  "SoftwareVersions": "syngo_MR_E11",
  "SpacingBetweenSlices": 2,
  "StationName": "MRC35049",
  "TotalReadoutTime": 0.0763001,
  "TxRefAmp": 218.321,
  "WipMemBlock": "fbf10032-ed07-4f83-8b27-f8f9e7e23bd7||Sequence: R016 ve11c/master r/e634e98; Dec 19 2017 11:11:25 by eja",
  "dcmmeta_affine": [
    [-2.0, 0.0, 0.0, 105.88240814208984],
    [0.0, 1.8126155138015747, -0.8452365398406982, -68.46102142333984],
    [0.0, 0.8452365398406982, 1.8126155138015747, -67.42620086669922],
    [0.0, 0.0, 0.0, 1.0]
],
  "dcmmeta_reorient_transform": [
    [0.0, -1.0, 0.0, 109.0],
    [1.0, 0.0, 0.0, 0.0],
    [0.0, 0.0, 1.0, 0.0],
    [0.0, 0.0, 0.0, 1.0]
],
  "dcmmeta_shape": [110, 110, 57, 99],
  "dcmmeta_slice_dim": 2,
  "dcmmeta_version": 0.6,
  "global": {
    "const": {
      "AcquisitionMatrix": [110, 0, 0, 110],
      "AngioFlag": "N",
      "BitsAllocated": 16,
      "BitsStored": 16,
      "BodyPartExamined": "BRAIN",
      "CardiacNumberOfImages": 1,
      "Columns": 880,
      "EchoNumbers": 1,
      "EchoTime": 81.6,
      "EchoTrainLength": 83,
      "FlipAngle": 78.0,
      "HighBit": 15,
      "ImageOrientationPatient": [1.0, 0.0, 0.0, 0.0, 0.90630778227357, -0.4226182719552],
      "ImagePositionPatient": [-875.88240623474, -826.97106400743, 350.12065303574],
      "ImageType": [
        "ORIGINAL",
        "PRIMARY",
        "DIFFUSION",
        "NONE",
        "MB",
        "ND",
        "MOSAIC"
],
      "ImagedNucleus": "1H",
      "ImagingFrequency": 123.259398,
      "InPlanePhaseEncodingDirection": "COL",
      "MRAcquisitionType": "2D",
      "MagneticFieldStrength": 3.0,
      "Manufacturer": "SIEMENS",
      "ManufacturerModelName": "Prisma_fit",
      "Modality": "MR",
      "NominalInterval": 0,
      "NumberOfAverages": 1.0,
      "NumberOfPhaseEncodingSteps": 83,
      "PercentPhaseFieldOfView": 100.0,
      "PercentSampling": 100.0,
      "PerformedProcedureStepStartTime": "114528.955000",
      "PhotometricInterpretation": "MONOCHROME2",
      "PixelBandwidth": 1685.0,
      "PixelRepresentation": 0,
      "PixelSpacing": [2.0, 2.0],
      "ProtocolName": "dMRI_dir98_AP_test_cmrr",
      "RepetitionTime": 2334.0,
      "Rows": 880,
      "SAR": 0.11928218484327,
      "SamplesPerPixel": 1,
      "ScanOptions": [
        "PFP",
        "EXT"
],
      "ScanningSequence": "EP",
      "SequenceVariant": [
        "SK",
        "SS"
],
      "SeriesDescription": "dMRI_dir98_AP_test_cmrr",
      "SeriesNumber": 7,
      "SeriesTime": "122501.358000",
      "SliceLocation": -32.176009446735,
      "SliceThickness": 2.0,
      "SmallestImagePixelValue": 0,
      "SoftwareVersions": "syngo MR E11",
      "SpacingBetweenSlices": 1.9999999841977,
      "SpecificCharacterSet": "ISO_IR 100",
      "StudyID": "1",
      "StudyTime": "114528.890000",
      "TransmitCoilName": "Body",
      "VariableFlipAngleFlag": "N",
      "WindowCenterWidthExplanation": "Algo1",
      "dBdt": 0.0},
    "slices": {}
  },
  "time": {
    "samples": {
      "AcquisitionNumber": [1, 2, 3, 4, 5, 6, 7, 8, 9, 10, 11, 12, 13, 14, 15, 16, 17, 18, 19, 20, 21, 22, 23, 24, 25, 26, 27, 28, 29, 30, 31, 32, 33, 34, 35, 36, 37, 38, 39, 40, 41, 42, 43, 44, 45, 46, 47, 48, 49, 50, 51, 52, 53, 54, 55, 56, 57, 58, 59, 60, 61, 62, 63, 64, 65, 66, 67, 68, 69, 70, 71, 72, 73, 74, 75, 76, 77, 78, 79, 80, 81, 82, 83, 84, 85, 86, 87, 88, 89, 90, 91, 92, 93, 94, 95, 96, 97, 98, 99],
      "AcquisitionTime": ["122409.472500", "122411.807500", "122414.140000", "122416.475000", "122418.810000", "122421.142500", "122423.477500", "122425.810000", "122428.145000", "122430.480000", "122432.812500", "122435.147500", "122437.480000", "122439.815000", "122442.150000", "122444.482500", "122446.817500", "122449.150000", "122451.485000", "122453.820000", "122456.152500", "122458.487500", "122500.820000", "122503.155000", "122505.490000", "122507.822500", "122510.157500", "122512.490000", "122514.825000", "122517.160000", "122519.492500", "122521.827500", "122524.160000", "122526.495000", "122528.830000", "122531.162500", "122533.497500", "122535.830000", "122538.165000", "122540.500000", "122542.832500", "122545.167500", "122547.500000", "122549.835000", "122552.170000", "122554.502500", "122556.837500", "122559.170000", "122601.505000", "122603.840000", "122606.172500", "122608.507500", "122610.840000", "122613.175000", "122615.510000", "122617.842500", "122620.177500", "122622.510000", "122624.845000", "122627.180000", "122629.512500", "122631.847500", "122634.180000", "122636.515000", "122638.850000", "122641.182500", "122643.517500", "122645.850000", "122648.185000", "122650.520000", "122652.852500", "122655.187500", "122657.520000", "122659.855000", "122702.190000", "122704.522500", "122706.857500", "122709.190000", "122711.525000", "122713.860000", "122716.192500", "122718.527500", "122720.860000", "122723.195000", "122725.530000", "122727.862500", "122730.197500", "122732.530000", "122734.865000", "122737.200000", "122739.532500", "122741.867500", "122744.200000", "122746.535000", "122748.870000", "122751.202500", "122753.537500", "122755.870000", "122758.205000"],
      "ContentTime": ["122501.361000", "122501.365000", "122501.369000", "122501.373000", "122501.376000", "122501.380000", "122501.383000", "122501.386000", "122501.389000", "122501.400000", "122501.429000", "122501.432000", "122501.436000", "122501.439000", "122501.444000", "122501.447000", "122501.450000", "122501.454000", "122501.457000", "122501.460000", "122501.463000", "122601.315000", "122601.319000", "122601.322000", "122601.325000", "122601.328000", "122601.331000", "122601.334000", "122601.337000", "122601.340000", "122601.343000", "122601.346000", "122601.349000", "122601.352000", "122601.356000", "122601.359000", "122601.362000", "122601.365000", "122601.368000", "122601.371000", "122601.374000", "122601.377000", "122601.381000", "122601.385000", "122601.396000", "122601.399000", "122601.402000", "122701.316000", "122701.319000", "122701.322000", "122701.336000", "122701.339000", "122701.343000", "122701.346000", "122701.349000", "122701.352000", "122701.355000", "122701.358000", "122701.361000", "122701.364000", "122701.367000", "122701.370000", "122701.373000", "122701.376000", "122701.379000", "122701.382000", "122701.401000", "122701.405000", "122701.408000", "122701.411000", "122701.414000", "122701.417000", "122701.420000", "122721.316000", "122721.320000", "122721.324000", "122721.327000", "122721.330000", "122721.334000", "122721.337000", "122721.341000", "122803.185000", "122803.189000", "122803.197000", "122803.200000", "122803.203000", "122803.206000", "122803.214000", "122803.217000", "122803.220000", "122803.223000", "122803.226000", "122803.229000", "122803.232000", "122803.235000", "122803.240000", "122803.244000", "122803.247000", "122803.250000"],
      "InstanceCreationTime": ["122501.361000", "122501.365000", "122501.369000", "122501.373000", "122501.376000", "122501.380000", "122501.383000", "122501.386000", "122501.389000", "122501.400000", "122501.429000", "122501.432000", "122501.436000", "122501.439000", "122501.444000", "122501.447000", "122501.450000", "122501.454000", "122501.457000", "122501.460000", "122501.463000", "122601.315000", "122601.319000", "122601.322000", "122601.325000", "122601.328000", "122601.331000", "122601.334000", "122601.337000", "122601.340000", "122601.343000", "122601.346000", "122601.349000", "122601.352000", "122601.356000", "122601.359000", "122601.362000", "122601.365000", "122601.368000", "122601.371000", "122601.374000", "122601.377000", "122601.381000", "122601.385000", "122601.396000", "122601.399000", "122601.402000", "122701.316000", "122701.319000", "122701.322000", "122701.336000", "122701.339000", "122701.343000", "122701.346000", "122701.349000", "122701.352000", "122701.355000", "122701.358000", "122701.361000", "122701.364000", "122701.367000", "122701.370000", "122701.373000", "122701.376000", "122701.379000", "122701.382000", "122701.401000", "122701.405000", "122701.408000", "122701.411000", "122701.414000", "122701.417000", "122701.420000", "122721.316000", "122721.320000", "122721.324000", "122721.327000", "122721.330000", "122721.334000", "122721.337000", "122721.341000", "122803.185000", "122803.189000", "122803.197000", "122803.200000", "122803.203000", "122803.206000", "122803.214000", "122803.217000", "122803.220000", "122803.223000", "122803.226000", "122803.229000", "122803.232000", "122803.235000", "122803.240000", "122803.244000", "122803.247000", "122803.250000"],
      "InstanceNumber": [1, 2, 3, 4, 5, 6, 7, 8, 9, 10, 11, 12, 13, 14, 15, 16, 17, 18, 19, 20, 21, 22, 23, 24, 25, 26, 27, 28, 29, 30, 31, 32, 33, 34, 35, 36, 37, 38, 39, 40, 41, 42, 43, 44, 45, 46, 47, 48, 49, 50, 51, 52, 53, 54, 55, 56, 57, 58, 59, 60, 61, 62, 63, 64, 65, 66, 67, 68, 69, 70, 71, 72, 73, 74, 75, 76, 77, 78, 79, 80, 81, 82, 83, 84, 85, 86, 87, 88, 89, 90, 91, 92, 93, 94, 95, 96, 97, 98, 99],
      "LargestImagePixelValue": [36207, 36486, 9587, 4347, 8966, 4064, 9095, 4944, 8941, 4604, 9144, 4236, 9745, 4985, 9875, 5109, 9451, 35240, 4947, 9531, 4059, 9347, 4373, 8899, 3883, 9573, 4197, 9163, 5090, 9829, 5624, 9650, 4185, 33601, 8961, 4364, 9143, 4014, 9377, 4089, 9621, 4157, 8921, 4648, 9669, 4212, 8962, 6291, 9267, 32637, 4232, 9844, 4377, 8806, 4609, 9695, 4449, 9452, 4825, 9140, 4702, 9828, 4762, 9393, 4581, 34487, 9149, 5286, 9370, 4461, 9348, 4160, 8711, 4133, 9240, 4511, 10002, 4228, 9218, 4571, 9345, 31903, 4277, 9299, 4141, 9819, 5473, 9126, 4710, 9133, 4255, 8869, 4165, 9885, 5715, 9339, 4958, 9780, 4328],
      "SequenceName": [
 "ep_b5#1",
 "ep_b5#1",
 "ep_b1490#2",
 "ep_b2990#3",
 "ep_b1495#4",
 "ep_b3005#5",
 "ep_b1500#6",
 "ep_b2985#7",
 "ep_b1495#8",
 "ep_b3005#9",
 "ep_b1490#10",
 "ep_b2995#11",
 "ep_b1495#12",
 "ep_b2990#13",
 "ep_b1500#14",
 "ep_b2985#15",
 "ep_b1500#16",
 "ep_b5#17",
 "ep_b3005#18",
 "ep_b1495#19",
 "ep_b2995#20",
 "ep_b1495#21",
 "ep_b3000#22",
 "ep_b1495#23",
 "ep_b3000#24",
 "ep_b1490#25",
 "ep_b2985#26",
 "ep_b1505#27",
 "ep_b2990#28",
 "ep_b1495#29",
 "ep_b3000#30",
 "ep_b1490#31",
 "ep_b3000#32",
 "ep_b5#33",
 "ep_b1505#34",
 "ep_b3000#35",
 "ep_b1490#36",
 "ep_b2985#37",
 "ep_b1495#38",
 "ep_b2995#39",
 "ep_b1500#40",
 "ep_b2995#41",
 "ep_b1500#42",
 "ep_b2990#43",
 "ep_b1495#44",
 "ep_b3000#45",
 "ep_b1495#46",
 "ep_b3000#47",
 "ep_b1490#48",
 "ep_b5#49",
 "ep_b3000#50",
 "ep_b1495#51",
 "ep_b2995#52",
 "ep_b1505#53",
 "ep_b2995#54",
 "ep_b1490#55",
 "ep_b2990#56",
 "ep_b1490#57",
 "ep_b2995#58",
 "ep_b1500#59",
 "ep_b3000#60",
 "ep_b1500#61",
 "ep_b2985#62",
 "ep_b1500#63",
 "ep_b2990#64",
 "ep_b5#65",
 "ep_b1505#66",
 "ep_b3005#67",
 "ep_b1495#68",
 "ep_b3000#69",
 "ep_b1505#70",
 "ep_b3005#71",
 "ep_b1500#72",
 "ep_b3005#73",
 "ep_b1495#74",
 "ep_b2995#75",
 "ep_b1495#76",
 "ep_b2995#77",
 "ep_b1500#78",
 "ep_b3000#79",
 "ep_b1490#80",
 "ep_b5#81",
 "ep_b2990#82",
 "ep_b1500#83",
 "ep_b2985#84",
 "ep_b1495#85",
 "ep_b2995#86",
 "ep_b1495#87",
 "ep_b2990#88",
 "ep_b1490#89",
 "ep_b2985#90",
 "ep_b1495#91",
 "ep_b2995#92",
 "ep_b1495#93",
 "ep_b3005#94",
 "ep_b1495#95",
 "ep_b2990#96",
 "ep_b1500#97",
 "ep_b3000#98"
],
      "TriggerTime": [13297.5, 15632.5, 17965.0, 20300.0, 22635.0, 24967.5, 27302.5, 29635.0, 31970.0, 34305.0, 36637.5, 38972.5, 41305.0, 43640.0, 45975.0, 48307.5, 50642.5, 52975.0, 55310.0, 57645.0, 59977.5, 62312.5, 64645.0, 66980.0, 69315.0, 71647.5, 73982.5, 76315.0, 78650.0, 80985.0, 83317.5, 85652.5, 87985.0, 90320.0, 92655.0, 94987.5, 97322.5, 99655.0, 101990.0, 104325.0, 106657.5, 108992.5, 111325.0, 113660.0, 115995.0, 118327.5, 120662.5, 122995.0, 125330.0, 127665.0, 129997.5, 132332.5, 134665.0, 137000.0, 139335.0, 141667.5, 144002.5, 146335.0, 148670.0, 151005.0, 153337.5, 155672.5, 158005.0, 160340.0, 162675.0, 165007.5, 167342.5, 169675.0, 172010.0, 174345.0, 176677.5, 179012.5, 181345.0, 183680.0, 186015.0, 188347.5, 190682.5, 193015.0, 195350.0, 197685.0, 200017.5, 202352.5, 204685.0, 207020.0, 209355.0, 211687.5, 214022.5, 216355.0, 218690.0, 221025.0, 223357.5, 225692.5, 228025.0, 230360.0, 232695.0, 235027.5, 237362.5, 239695.0, 242030.0],
      "WindowCenter": [6583.0, 6585.0, 2594.0, 1523.0, 2651.0, 1509.0, 2614.0, 1526.0, 2602.0, 1472.0, 2552.0, 1529.0, 2664.0, 1568.0, 2607.0, 1554.0, 2575.0, 6501.0, 1534.0, 2641.0, 1496.0, 2649.0, 1549.0, 2595.0, 1532.0, 2569.0, 1474.0, 2622.0, 1575.0, 2658.0, 1542.0, 2636.0, 1526.0, 6498.0, 2591.0, 1511.0, 2568.0, 1472.0, 2599.0, 1533.0, 2633.0, 1502.0, 2550.0, 1552.0, 2613.0, 1477.0, 2596.0, 1606.0, 2594.0, 6505.0, 1490.0, 2670.0, 1528.0, 2550.0, 1551.0, 2622.0, 1557.0, 2638.0, 1502.0, 2622.0, 1487.0, 2576.0, 1500.0, 2647.0, 1550.0, 6469.0, 2563.0, 1577.0, 2653.0, 1523.0, 2605.0, 1511.0, 2610.0, 1458.0, 2548.0, 1544.0, 2620.0, 1545.0, 2661.0, 1512.0, 2586.0, 6458.0, 1496.0, 2569.0, 1478.0, 2650.0, 1564.0, 2596.0, 1547.0, 2547.0, 1475.0, 2613.0, 1532.0, 2674.0, 1561.0, 2592.0, 1557.0, 2586.0, 1540.0],
      "WindowWidth": [14248.0, 14253.0, 6176.0, 3946.0, 6306.0, 3911.0, 6219.0, 3957.0, 6208.0, 3817.0, 6097.0, 3970.0, 6319.0, 4044.0, 6209.0, 4014.0, 6141.0, 14060.0, 3959.0, 6279.0, 3897.0, 6285.0, 4021.0, 6189.0, 3984.0, 6122.0, 3824.0, 6232.0, 4075.0, 6303.0, 3971.0, 6271.0, 3956.0, 14066.0, 6172.0, 3923.0, 6132.0, 3812.0, 6182.0, 3982.0, 6253.0, 3916.0, 6093.0, 3999.0, 6221.0, 3837.0, 6190.0, 4115.0, 6184.0, 14076.0, 3867.0, 6318.0, 3970.0, 6091.0, 4033.0, 6238.0, 4025.0, 6263.0, 3890.0, 6244.0, 3860.0, 6142.0, 3870.0, 6282.0, 4025.0, 14004.0, 6114.0, 4050.0, 6304.0, 3946.0, 6198.0, 3928.0, 6221.0, 3784.0, 6093.0, 4008.0, 6228.0, 4003.0, 6312.0, 3930.0, 6157.0, 13986.0, 3883.0, 6138.0, 3843.0, 6289.0, 4032.0, 6184.0, 3992.0, 6081.0, 3825.0, 6228.0, 3979.0, 6337.0, 4014.0, 6177.0, 4032.0, 6161.0, 3977.0]
    },
    "slices": {}
  }
}