{
  "AcquisitionMatrixPE": 110,
  "AcquisitionNumber": 1,
  "AcquisitionTime": "19:23:7.132500",
  "BandwidthPerPixelPhaseEncode": 12.987,
  "BaseResolution": 110,
  "BodyPartExamined": "BRAIN",
  "CoilCombinationMethod": "Sum of Squares",
  "ConsistencyInfo": "N4_VE11C_LATEST_20160120",
  "ConversionSoftware": "dcm2niix",
  "ConversionSoftwareVersion": "v1.0.20220505",
  "DerivedVendorReportedEchoSpacing": 0.000700001,
  "DeviceSerialNumber": "167006",
  "DiffusionScheme": "Monopolar",
  "DwellTime": 2.7e-06,
  "EchoTime": 0.0768,
  "EchoTrainLength": 83,
  "EffectiveEchoSpacing": 0.000700001,
  "FlipAngle": 78,
  "HeudiconvVersion": "0.5.3.post811+g6206e14",
  "ImageComments": "Unaliased MB3/PE3/LB SENSE1+",
  "ImageOrientationPatientDICOM": [1, 0, 0, 0, 0.945519, -0.325568],
  "ImageOrientationText": "Tra>Cor(-19.0)",
  "ImageType": [
    "ORIGINAL",
    "PRIMARY",
    "DIFFUSION",
    "NONE",
    "MB",
    "ND",
    "MOSAIC"
],
  "ImagingFrequency": 123.259,
  "InPlanePhaseEncodingDirectionDICOM": "COL",
  "InstitutionAddress": "Chemin Queen-Mary 4565,Montreal,District,CA,H3W 1W5",
  "InstitutionName": "IUGM",
  "InstitutionalDepartmentName": "Department",
  "MRAcquisitionType": "2D",
  "MagneticFieldStrength": 3,
  "Manufacturer": "Siemens",
  "ManufacturersModelName": "Prisma_fit",
  "MatrixCoilMode": "SENSE",
  "Modality": "MR",
  "MultibandAccelerationFactor": 3,
  "PartialFourier": 0.75,
  "PatientPosition": "HFS",
  "PercentPhaseFOV": 100,
  "PercentSampling": 100,
  "PhaseEncodingDirection": "j-",
  "PhaseEncodingSteps": 83,
  "PhaseResolution": 1,
  "PixelBandwidth": 1685,
  "ProcedureStepDescription": "anat^generic",
  "ProtocolName": "dMRI_dir106_AP_test_cmrr",
  "PulseSequenceDetails": "%CustomerSeq%\\cmrr_mbep2d_diff",
  "ReceiveCoilActiveElements": "HC1-6",
  "ReceiveCoilName": "HeadNeck_64",
  "ReconMatrixPE": 110,
  "RepetitionTime": 2.243,
  "SAR": 0.166049,
  "ScanOptions": "PFP\\EXT",
  "ScanningSequence": "EP",
  "SequenceName": "ep_b0",
  "SequenceVariant": "SK\\SS",
  "SeriesDescription": "dMRI_dir106_AP_test_cmrr",
  "SeriesNumber": 8,
  "ShimSetting": [583, -7319, -8796, 407, 20, -340, -5, 102],
  "SliceThickness": 2,
  "SliceTiming": [0, 1.17, 0.1175, 1.2875, 0.235, 1.405, 0.35, 1.52, 0.4675, 1.6375, 0.585, 1.755, 0.7025, 1.8725, 0.82, 1.99, 0.935, 2.105, 1.0525, 0, 1.17, 0.1175, 1.2875, 0.235, 1.405, 0.35, 1.52, 0.4675, 1.6375, 0.585, 1.755, 0.7025, 1.8725, 0.82, 1.99, 0.935, 2.105, 1.0525, 0, 1.17, 0.1175, 1.2875, 0.235, 1.405, 0.35, 1.52, 0.4675, 1.6375, 0.585, 1.755, 0.7025, 1.8725, 0.82, 1.99, 0.935, 2.105, 1.0525],
  "SoftwareVersions": "syngo MR E11",
  "SpacingBetweenSlices": 2,
  "StationName": "MRC35049",
  "TotalReadoutTime": 0.0763001,
  "TxRefAmp": 253.129,
  "WipMemBlock": "acf0caf1-1213-4ac3-857c-57848f2c1177||Sequence: R017 ve11c/master r/75a17815+; Jun 28 2022 16:41:33 by eja",
  "dcmmeta_affine": [
    [-2.0, 0.0, 0.0, 109.49686431884766],
    [0.0, 1.891037106513977, -0.6511363387107849, -79.0899887084961],
    [0.0, 0.6511363387107849, 1.8910372257232666, -45.11040115356445],
    [0.0, 0.0, 0.0, 1.0]
],
  "dcmmeta_reorient_transform": [
    [0.0, -1.0, 0.0, 109.0],
    [1.0, 0.0, 0.0, 0.0],
    [0.0, 0.0, 1.0, 0.0],
    [0.0, 0.0, 0.0, 1.0]
],
  "dcmmeta_shape": [110, 110, 57, 107],
  "dcmmeta_slice_dim": 2,
  "dcmmeta_version": 0.6,
  "global": {
    "const": {
      "AcquisitionMatrix": [110, 0, 0, 110],
      "AngioFlag": "N",
      "BitsAllocated": 16,
      "BitsStored": 16,
      "BodyPartExamined": "BRAIN",
      "CardiacNumberOfImages": 1,
      "Columns": 880,
      "EchoNumbers": 1,
      "EchoTime": 76.8,
      "EchoTrainLength": 83,
      "FlipAngle": 78.0,
      "HighBit": 15,
      "ImageOrientationPatient": [1.0, 0.0, 0.0, 0.0, 0.94551857135949, -0.3255681667705],
      "ImagePositionPatient": [-879.49686384201, -855.08236093905, 276.55094634515],
      "ImageType": [
        "ORIGINAL",
        "PRIMARY",
        "DIFFUSION",
        "NONE",
        "MB",
        "ND",
        "MOSAIC"
],
      "ImagedNucleus": "1H",
      "ImagingFrequency": 123.259077,
      "InPlanePhaseEncodingDirection": "COL",
      "MRAcquisitionType": "2D",
      "MagneticFieldStrength": 3.0,
      "Manufacturer": "SIEMENS",
      "ManufacturerModelName": "Prisma_fit",
      "Modality": "MR",
      "NominalInterval": 0,
      "NumberOfAverages": 1.0,
      "NumberOfPhaseEncodingSteps": 83,
      "PercentPhaseFieldOfView": 100.0,
      "PercentSampling": 100.0,
      "PerformedProcedureStepStartTime": "190654.671000",
      "PhotometricInterpretation": "MONOCHROME2",
      "PixelBandwidth": 1685.0,
      "PixelRepresentation": 0,
      "PixelSpacing": [2.0, 2.0],
      "ProtocolName": "dMRI_dir106_AP_test_cmrr",
      "RepetitionTime": 2243.0,
      "Rows": 880,
      "SAR": 0.16604888834994,
      "SamplesPerPixel": 1,
      "ScanOptions": [
        "PFP",
        "EXT"
],
      "ScanningSequence": "EP",
      "SequenceVariant": [
        "SK",
        "SS"
],
      "SeriesDescription": "dMRI_dir106_AP_test_cmrr",
      "SeriesNumber": 8,
      "SeriesTime": "192401.768000",
      "SliceLocation": -16.903540992349,
      "SliceThickness": 2.0,
      "SmallestImagePixelValue": 0,
      "SoftwareVersions": "syngo MR E11",
      "SpacingBetweenSlices": 2.0000000612909,
      "SpecificCharacterSet": "ISO_IR 100",
      "StudyID": "1",
      "StudyTime": "190654.591000",
      "TransmitCoilName": "Body",
      "VariableFlipAngleFlag": "N",
      "WindowCenterWidthExplanation": "Algo1",
      "dBdt": 0.0},
    "slices": {}
  },
  "time": {
    "samples": {
      "AcquisitionNumber": [1, 2, 3, 4, 5, 6, 7, 8, 9, 10, 11, 12, 13, 14, 15, 16, 17, 18, 19, 20, 21, 22, 23, 24, 25, 26, 27, 28, 29, 30, 31, 32, 33, 34, 35, 36, 37, 38, 39, 40, 41, 42, 43, 44, 45, 46, 47, 48, 49, 50, 51, 52, 53, 54, 55, 56, 57, 58, 59, 60, 61, 62, 63, 64, 65, 66, 67, 68, 69, 70, 71, 72, 73, 74, 75, 76, 77, 78, 79, 80, 81, 82, 83, 84, 85, 86, 87, 88, 89, 90, 91, 92, 93, 94, 95, 96, 97, 98, 99, 100, 101, 102, 103, 104, 105, 106, 107],
      "AcquisitionTime": ["192307.132500", "192309.375000", "192311.617500", "192313.862500", "192316.105000", "192318.347500", "192320.590000", "192322.832500", "192325.077500", "192327.320000", "192329.562500", "192331.805000", "192334.047500", "192336.292500", "192338.535000", "192340.777500", "192343.020000", "192345.262500", "192347.507500", "192349.750000", "192351.992500", "192354.235000", "192356.477500", "192358.722500", "192400.965000", "192403.207500", "192405.450000", "192407.692500", "192409.937500", "192412.180000", "192414.422500", "192416.665000", "192418.907500", "192421.152500", "192423.395000", "192425.637500", "192427.880000", "192430.122500", "192432.367500", "192434.610000", "192436.852500", "192439.095000", "192441.337500", "192443.582500", "192445.825000", "192448.067500", "192450.310000", "192452.552500", "192454.797500", "192457.040000", "192459.282500", "192501.525000", "192503.767500", "192506.012500", "192508.255000", "192510.497500", "192512.740000", "192514.982500", "192517.227500", "192519.470000", "192521.712500", "192523.955000", "192526.197500", "192528.442500", "192530.685000", "192532.927500", "192535.170000", "192537.412500", "192539.657500", "192541.900000", "192544.142500", "192546.385000", "192548.627500", "192550.872500", "192553.115000", "192555.357500", "192557.600000", "192559.842500", "192602.087500", "192604.330000", "192606.572500", "192608.815000", "192611.057500", "192613.302500", "192615.545000", "192617.787500", "192620.030000", "192622.272500", "192624.517500", "192626.760000", "192629.002500", "192631.245000", "192633.487500", "192635.732500", "192637.975000", "192640.217500", "192642.460000", "192644.702500", "192646.947500", "192649.190000", "192651.432500", "192653.675000", "192655.917500", "192658.162500", "192700.405000", "192702.647500", "192704.890000"],
      "ContentTime": ["192401.771000", "192401.775000", "192401.778000", "192401.781000", "192401.785000", "192401.788000", "192401.791000", "192401.794000", "192401.797000", "192401.800000", "192401.803000", "192401.807000", "192401.810000", "192401.813000", "192401.816000", "192401.827000", "192401.831000", "192401.834000", "192401.837000", "192401.840000", "192401.844000", "192401.847000", "192401.850000", "192401.854000", "192501.742000", "192501.746000", "192501.749000", "192501.752000", "192501.755000", "192501.759000", "192501.762000", "192501.765000", "192501.768000", "192501.771000", "192501.775000", "192501.778000", "192501.781000", "192501.784000", "192501.787000", "192501.790000", "192501.793000", "192501.797000", "192501.800000", "192501.803000", "192501.806000", "192501.809000", "192501.812000", "192501.816000", "192501.819000", "192501.822000", "192501.825000", "192601.742000", "192601.746000", "192601.749000", "192601.752000", "192601.755000", "192601.758000", "192601.761000", "192601.765000", "192601.768000", "192601.888000", "192601.891000", "192601.895000", "192601.898000", "192601.901000", "192601.904000", "192601.908000", "192601.911000", "192601.914000", "192601.917000", "192601.921000", "192601.924000", "192601.927000", "192601.930000", "192601.933000", "192601.936000", "192601.940000", "192701.742000", "192701.746000", "192701.749000", "192701.752000", "192701.755000", "192701.759000", "192701.762000", "192701.765000", "192701.769000", "192701.772000", "192701.775000", "192701.779000", "192701.782000", "192701.785000", "192701.788000", "192701.792000", "192701.795000", "192701.798000", "192701.802000", "192701.805000", "192701.808000", "192701.811000", "192701.815000", "192701.818000", "192701.821000", "192701.824000", "192701.827000", "192709.346000", "192709.350000", "192709.353000"],
      "InstanceCreationTime": ["192401.771000", "192401.775000", "192401.778000", "192401.781000", "192401.785000", "192401.788000", "192401.791000", "192401.794000", "192401.797000", "192401.800000", "192401.803000", "192401.807000", "192401.810000", "192401.813000", "192401.816000", "192401.827000", "192401.831000", "192401.834000", "192401.837000", "192401.840000", "192401.844000", "192401.847000", "192401.850000", "192401.854000", "192501.742000", "192501.746000", "192501.749000", "192501.752000", "192501.755000", "192501.759000", "192501.762000", "192501.765000", "192501.768000", "192501.771000", "192501.775000", "192501.778000", "192501.781000", "192501.784000", "192501.787000", "192501.790000", "192501.793000", "192501.797000", "192501.800000", "192501.803000", "192501.806000", "192501.809000", "192501.812000", "192501.816000", "192501.819000", "192501.822000", "192501.825000", "192601.742000", "192601.746000", "192601.749000", "192601.752000", "192601.755000", "192601.758000", "192601.761000", "192601.765000", "192601.768000", "192601.888000", "192601.891000", "192601.895000", "192601.898000", "192601.901000", "192601.904000", "192601.908000", "192601.911000", "192601.914000", "192601.917000", "192601.921000", "192601.924000", "192601.927000", "192601.930000", "192601.933000", "192601.936000", "192601.940000", "192701.742000", "192701.746000", "192701.749000", "192701.752000", "192701.755000", "192701.759000", "192701.762000", "192701.765000", "192701.769000", "192701.772000", "192701.775000", "192701.779000", "192701.782000", "192701.785000", "192701.788000", "192701.792000", "192701.795000", "192701.798000", "192701.802000", "192701.805000", "192701.808000", "192701.811000", "192701.815000", "192701.818000", "192701.821000", "192701.824000", "192701.827000", "192709.346000", "192709.350000", "192709.353000"],
      "InstanceNumber": [1, 2, 3, 4, 5, 6, 7, 8, 9, 10, 11, 12, 13, 14, 15, 16, 17, 18, 19, 20, 21, 22, 23, 24, 25, 26, 27, 28, 29, 30, 31, 32, 33, 34, 35, 36, 37, 38, 39, 40, 41, 42, 43, 44, 45, 46, 47, 48, 49, 50, 51, 52, 53, 54, 55, 56, 57, 58, 59, 60, 61, 62, 63, 64, 65, 66, 67, 68, 69, 70, 71, 72, 73, 74, 75, 76, 77, 78, 79, 80, 81, 82, 83, 84, 85, 86, 87, 88, 89, 90, 91, 92, 93, 94, 95, 96, 97, 98, 99, 100, 101, 102, 103, 104, 105, 106, 107],
      "LargestImagePixelValue": [36868, 40035, 13146, 7473, 12871, 12219, 22196, 7498, 6744, 6472, 13860, 22136, 7019, 6923, 6886, 7083, 12099, 6839, 6722, 6595, 7758, 37119, 13025, 7958, 13423, 11822, 6556, 6435, 6873, 6842, 21276, 6747, 13464, 6542, 6436, 20980, 6782, 7168, 12068, 6513, 6793, 35602, 7688, 6846, 6777, 21727, 13681, 7651, 6381, 13424, 6632, 12033, 12259, 7291, 22230, 12477, 6159, 13506, 7374, 6802, 12504, 34617, 12608, 6051, 6942, 6254, 7726, 22512, 12834, 12081, 6497, 7330, 6979, 7046, 12833, 6863, 7636, 6592, 12478, 12830, 7652, 36325, 12121, 7151, 6199, 12536, 12481, 6099, 12133, 7854, 7483, 6079, 13156, 6077, 6544, 6734, 20208, 12628, 6747, 11763, 11834, 34527, 6968, 6290, 12064, 7164, 7765],
      "SequenceName": [
 "ep_b0",
 "ep_b0",
 "ep_b1000#2",
 "ep_b2000#3",
 "ep_b1000#4",
 "ep_b1000#5",
 "ep_b300#6",
 "ep_b2000#7",
 "ep_b2000#8",
 "ep_b2000#9",
 "ep_b1000#10",
 "ep_b300#11",
 "ep_b2000#12",
 "ep_b2000#13",
 "ep_b2000#14",
 "ep_b2000#15",
 "ep_b1000#16",
 "ep_b2000#17",
 "ep_b2000#18",
 "ep_b2000#19",
 "ep_b2000#20",
 "ep_b0",
 "ep_b1000#22",
 "ep_b2000#23",
 "ep_b1000#24",
 "ep_b1000#25",
 "ep_b2000#26",
 "ep_b2000#27",
 "ep_b2000#28",
 "ep_b2000#29",
 "ep_b300#30",
 "ep_b2000#31",
 "ep_b1000#32",
 "ep_b2000#33",
 "ep_b2000#34",
 "ep_b300#35",
 "ep_b2000#36",
 "ep_b2000#37",
 "ep_b1000#38",
 "ep_b2000#39",
 "ep_b2000#40",
 "ep_b0",
 "ep_b2000#42",
 "ep_b2000#43",
 "ep_b2000#44",
 "ep_b300#45",
 "ep_b1000#46",
 "ep_b2000#47",
 "ep_b2000#48",
 "ep_b1000#49",
 "ep_b2000#50",
 "ep_b1000#51",
 "ep_b1000#52",
 "ep_b2000#53",
 "ep_b300#54",
 "ep_b1000#55",
 "ep_b2000#56",
 "ep_b1000#57",
 "ep_b2000#58",
 "ep_b2000#59",
 "ep_b1000#60",
 "ep_b0",
 "ep_b1000#62",
 "ep_b2000#63",
 "ep_b2000#64",
 "ep_b2000#65",
 "ep_b2000#66",
 "ep_b300#67",
 "ep_b1000#68",
 "ep_b1000#69",
 "ep_b2000#70",
 "ep_b2000#71",
 "ep_b2000#72",
 "ep_b2000#73",
 "ep_b1000#74",
 "ep_b2000#75",
 "ep_b2000#76",
 "ep_b2000#77",
 "ep_b1000#78",
 "ep_b1000#79",
 "ep_b2000#80",
 "ep_b0",
 "ep_b1000#82",
 "ep_b2000#83",
 "ep_b2000#84",
 "ep_b1000#85",
 "ep_b1000#86",
 "ep_b2000#87",
 "ep_b1000#88",
 "ep_b2000#89",
 "ep_b2000#90",
 "ep_b2000#91",
 "ep_b1000#92",
 "ep_b2000#93",
 "ep_b2000#94",
 "ep_b2000#95",
 "ep_b300#96",
 "ep_b1000#97",
 "ep_b2000#98",
 "ep_b1000#99",
 "ep_b1000#100",
 "ep_b0",
 "ep_b2000#102",
 "ep_b2000#103",
 "ep_b1000#104",
 "ep_b2000#105",
 "ep_b2000#106"
],
      "TriggerTime": [12837.5, 15080.0, 17322.5, 19565.0, 21810.0, 24052.5, 26295.0, 28537.5, 30780.0, 33025.0, 35267.5, 37510.0, 39752.5, 41995.0, 44240.0, 46482.5, 48725.0, 50967.5, 53210.0, 55455.0, 57697.5, 59940.0, 62182.5, 64425.0, 66670.0, 68912.5, 71155.0, 73397.5, 75640.0, 77885.0, 80127.5, 82370.0, 84612.5, 86855.0, 89100.0, 91342.5, 93585.0, 95827.5, 98070.0, 100315.0, 102557.5, 104800.0, 107042.5, 109285.0, 111530.0, 113772.5, 116015.0, 118257.5, 120500.0, 122745.0, 124987.5, 127230.0, 129472.5, 131715.0, 133960.0, 136202.5, 138445.0, 140687.5, 142930.0, 145175.0, 147417.5, 149660.0, 151902.5, 154145.0, 156390.0, 158632.5, 160875.0, 163117.5, 165360.0, 167605.0, 169847.5, 172090.0, 174332.5, 176575.0, 178820.0, 181062.5, 183305.0, 185547.5, 187790.0, 190035.0, 192277.5, 194520.0, 196762.5, 199005.0, 201250.0, 203492.5, 205735.0, 207977.5, 210220.0, 212465.0, 214707.5, 216950.0, 219192.5, 221435.0, 223680.0, 225922.5, 228165.0, 230407.5, 232650.0, 234895.0, 237137.5, 239380.0, 241622.5, 243865.0, 246110.0, 248352.5, 250595.0],
      "WindowCenter": [6908.0, 6966.0, 3301.0, 2128.0, 3295.0, 3278.0, 5110.0, 2111.0, 2103.0, 2126.0, 3296.0, 5090.0, 2092.0, 2091.0, 2140.0, 2148.0, 3272.0, 2118.0, 2157.0, 2107.0, 2106.0, 6891.0, 3273.0, 2134.0, 3289.0, 3282.0, 2093.0, 2115.0, 2081.0, 2098.0, 5115.0, 2080.0, 3281.0, 2110.0, 2098.0, 5087.0, 2110.0, 2110.0, 3257.0, 2133.0, 2096.0, 6761.0, 2110.0, 2081.0, 2073.0, 5039.0, 3288.0, 2100.0, 2140.0, 3291.0, 2123.0, 3240.0, 3295.0, 2114.0, 5031.0, 3267.0, 2076.0, 3311.0, 2108.0, 2128.0, 3260.0, 6770.0, 3270.0, 2056.0, 2139.0, 2077.0, 2116.0, 5034.0, 3244.0, 3260.0, 2095.0, 2113.0, 2141.0, 2130.0, 3239.0, 2113.0, 2148.0, 2102.0, 3229.0, 3246.0, 2109.0, 6814.0, 3222.0, 2110.0, 2064.0, 3257.0, 3255.0, 2037.0, 3230.0, 2143.0, 2153.0, 2084.0, 3287.0, 2078.0, 2113.0, 2074.0, 5036.0, 3267.0, 2089.0, 3258.0, 3254.0, 6763.0, 2075.0, 2058.0, 3285.0, 2082.0, 2110.0],
      "WindowWidth": [15036.0, 15156.0, 7624.0, 5240.0, 7610.0, 7580.0, 11197.0, 5193.0, 5198.0, 5241.0, 7610.0, 11155.0, 5153.0, 5154.0, 5268.0, 5284.0, 7571.0, 5221.0, 5300.0, 5210.0, 5177.0, 14977.0, 7569.0, 5223.0, 7596.0, 7592.0, 5183.0, 5216.0, 5133.0, 5175.0, 11196.0, 5142.0, 7578.0, 5216.0, 5180.0, 11156.0, 5200.0, 5195.0, 7539.0, 5262.0, 5169.0, 14710.0, 5187.0, 5139.0, 5122.0, 11055.0, 7588.0, 5160.0, 5265.0, 7595.0, 5242.0, 7511.0, 7616.0, 5206.0, 11041.0, 7556.0, 5145.0, 7643.0, 5182.0, 5239.0, 7548.0, 14725.0, 7567.0, 5094.0, 5258.0, 5146.0, 5190.0, 11044.0, 7509.0, 7548.0, 5174.0, 5201.0, 5259.0, 5246.0, 7503.0, 5212.0, 5264.0, 5192.0, 7485.0, 7522.0, 5192.0, 14822.0, 7472.0, 5187.0, 5123.0, 7530.0, 7538.0, 5049.0, 7486.0, 5242.0, 5282.0, 5150.0, 7592.0, 5151.0, 5214.0, 5134.0, 11052.0, 7555.0, 5166.0, 7553.0, 7538.0, 14714.0, 5120.0, 5099.0, 7593.0, 5141.0, 5186.0]
    },
    "slices": {}
  }
}