{
  "AcquisitionMatrixPE": 110,
  "AcquisitionNumber": 1,
  "AcquisitionTime": "15:29:41.462500",
  "BandwidthPerPixelPhaseEncode": 12.987,
  "BaseResolution": 110,
  "BodyPartExamined": "BRAIN",
  "ConsistencyInfo": "N4_VE11C_LATEST_20160120",
  "ConversionSoftware": "dcm2niix",
  "ConversionSoftwareVersion": "v1.0.20190902",
  "DerivedVendorReportedEchoSpacing": 0.000700001,
  "DeviceSerialNumber": "167006",
  "DiffusionScheme": "Monopolar",
  "DwellTime": 2.7e-06,
  "EchoTime": 0.0816,
  "EchoTrainLength": 83,
  "EffectiveEchoSpacing": 0.000700001,
  "FlipAngle": 78,
  "ImageComments": "Unaliased_MB3_PE3_LB_SENSE1",
  "ImageOrientationPatientDICOM": [1, 0, 0, 0, 0.900319, -0.435231],
  "ImageType": [
    "ORIGINAL",
    "PRIMARY",
    "DIFFUSION",
    "NONE",
    "MB",
    "ND",
    "MOSAIC"
],
  "ImagingFrequency": 123.259,
  "InPlanePhaseEncodingDirectionDICOM": "COL",
  "InstitutionAddress": "Chemin_Queen-Mary_4565_Montreal_District_CA_H3W_1W5",
  "InstitutionName": "IUGM",
  "InstitutionalDepartmentName": "Department",
  "MRAcquisitionType": "2D",
  "MagneticFieldStrength": 3,
  "Manufacturer": "Siemens",
  "ManufacturersModelName": "Prisma_fit",
  "Modality": "MR",
  "MultibandAccelerationFactor": 3,
  "PartialFourier": 0.75,
  "PatientPosition": "HFS",
  "PercentPhaseFOV": 100,
  "PhaseEncodingDirection": "j-",
  "PhaseEncodingSteps": 83,
  "PhaseResolution": 1,
  "PixelBandwidth": 1685,
  "ProcedureStepDescription": "hcptrt_generic",
  "ProtocolName": "dMRI_dir98_AP_test_cmrr",
  "PulseSequenceDetails": "%CustomerSeq%_cmrr_mbep2d_diff",
  "ReceiveCoilActiveElements": "HC1-6",
  "ReceiveCoilName": "HeadNeck_64",
  "ReconMatrixPE": 110,
  "RepetitionTime": 2.334,
  "SAR": 0.108611,
  "ScanOptions": "PFP_EXT",
  "ScanningSequence": "EP",
  "SequenceName": "ep_b5#1",
  "SequenceVariant": "SK_SS",
  "SeriesDescription": "dMRI_dir98_AP_test_cmrr",
  "SeriesNumber": 7,
  "ShimSetting": [627, -7166, -8811, 623, 29, 150, 95, -17],
  "SliceThickness": 2,
  "SliceTiming": [0, 1.2175, 0.1225, 1.34, 0.2425, 1.4625, 0.365, 1.5825, 0.4875, 1.705, 0.61, 1.8275, 0.73, 1.9475, 0.8525, 2.07, 0.975, 2.1925, 1.095, 0, 1.2175, 0.1225, 1.34, 0.2425, 1.4625, 0.365, 1.5825, 0.4875, 1.705, 0.61, 1.8275, 0.73, 1.9475, 0.8525, 2.07, 0.975, 2.1925, 1.095, 0, 1.2175, 0.1225, 1.34, 0.2425, 1.4625, 0.365, 1.5825, 0.4875, 1.705, 0.61, 1.8275, 0.73, 1.9475, 0.8525, 2.07, 0.975, 2.1925, 1.095],
  "SoftwareVersions": "syngo_MR_E11",
  "SpacingBetweenSlices": 2,
  "StationName": "MRC35049",
  "TotalReadoutTime": 0.0763001,
  "TxRefAmp": 208.435,
  "WipMemBlock": "652002ed-41e7-4b00-9f90-afb2fd956880||Sequence: R016 ve11c/master r/e634e98; Dec 19 2017 11:11:25 by eja",
  "dcmmeta_affine": [
    [-2.0, 0.0, 0.0, 111.30409240722656],
    [0.0, 1.8006376028060913, -0.87046217918396, -65.903076171875],
    [0.0, 0.87046217918396, 1.8006374835968018, -75.07950592041016],
    [0.0, 0.0, 0.0, 1.0]
],
  "dcmmeta_reorient_transform": [
    [0.0, -1.0, 0.0, 109.0],
    [1.0, 0.0, 0.0, 0.0],
    [0.0, 0.0, 1.0, 0.0],
    [0.0, 0.0, 0.0, 1.0]
],
  "dcmmeta_shape": [110, 110, 57, 99],
  "dcmmeta_slice_dim": 2,
  "dcmmeta_version": 0.6,
  "global": {
    "const": {
      "AcquisitionMatrix": [110, 0, 0, 110],
      "AngioFlag": "N",
      "BitsAllocated": 16,
      "BitsStored": 16,
      "BodyPartExamined": "BRAIN",
      "CardiacNumberOfImages": 1,
      "Columns": 880,
      "EchoNumbers": 1,
      "EchoTime": 81.6,
      "EchoTrainLength": 83,
      "FlipAngle": 78.0,
      "HighBit": 15,
      "ImageOrientationPatient": [1.0, 0.0, 0.0, 0.0, 0.90031877697973, -0.4352310878346],
      "ImagePositionPatient": [-881.30409276485, -823.6118778834, 354.92881048052],
      "ImageType": [
        "ORIGINAL",
        "PRIMARY",
        "DIFFUSION",
        "NONE",
        "MB",
        "ND",
        "MOSAIC"
],
      "ImagedNucleus": "1H",
      "ImagingFrequency": 123.259278,
      "InPlanePhaseEncodingDirection": "COL",
      "MRAcquisitionType": "2D",
      "MagneticFieldStrength": 3.0,
      "Manufacturer": "SIEMENS",
      "ManufacturerModelName": "Prisma_fit",
      "Modality": "MR",
      "NominalInterval": 0,
      "NumberOfAverages": 1.0,
      "NumberOfPhaseEncodingSteps": 83,
      "PercentPhaseFieldOfView": 100.0,
      "PercentSampling": 100.0,
      "PerformedProcedureStepStartTime": "150805.711000",
      "PhotometricInterpretation": "MONOCHROME2",
      "PixelBandwidth": 1685.0,
      "PixelRepresentation": 0,
      "PixelSpacing": [2.0, 2.0],
      "ProtocolName": "dMRI_dir98_AP_test_cmrr",
      "RepetitionTime": 2334.0,
      "Rows": 880,
      "SAR": 0.10861140620072,
      "SamplesPerPixel": 1,
      "ScanOptions": [
        "PFP",
        "EXT"
],
      "ScanningSequence": "EP",
      "SequenceVariant": [
        "SK",
        "SS"
],
      "SeriesDescription": "dMRI_dir98_AP_test_cmrr",
      "SeriesNumber": 7,
      "SeriesTime": "153004.352000",
      "SliceLocation": -38.912420998031,
      "SliceThickness": 2.0,
      "SmallestImagePixelValue": 0,
      "SoftwareVersions": "syngo MR E11",
      "SpacingBetweenSlices": 1.9999999688456,
      "SpecificCharacterSet": "ISO_IR 100",
      "StudyID": "1",
      "StudyTime": "150805.634000",
      "TransmitCoilName": "Body",
      "VariableFlipAngleFlag": "N",
      "WindowCenterWidthExplanation": "Algo1",
      "dBdt": 0.0},
    "slices": {}
  },
  "time": {
    "samples": {
      "AcquisitionNumber": [1, 2, 3, 4, 5, 6, 7, 8, 9, 10, 11, 12, 13, 14, 15, 16, 17, 18, 19, 20, 21, 22, 23, 24, 25, 26, 27, 28, 29, 30, 31, 32, 33, 34, 35, 36, 37, 38, 39, 40, 41, 42, 43, 44, 45, 46, 47, 48, 49, 50, 51, 52, 53, 54, 55, 56, 57, 58, 59, 60, 61, 62, 63, 64, 65, 66, 67, 68, 69, 70, 71, 72, 73, 74, 75, 76, 77, 78, 79, 80, 81, 82, 83, 84, 85, 86, 87, 88, 89, 90, 91, 92, 93, 94, 95, 96, 97, 98, 99],
      "AcquisitionTime": ["152941.462500", "152943.797500", "152946.130000", "152948.465000", "152950.797500", "152953.132500", "152955.467500", "152957.800000", "153000.135000", "153002.467500", "153004.802500", "153007.137500", "153009.470000", "153011.805000", "153014.137500", "153016.472500", "153018.807500", "153021.140000", "153023.475000", "153025.807500", "153028.142500", "153030.477500", "153032.810000", "153035.145000", "153037.477500", "153039.812500", "153042.147500", "153044.480000", "153046.815000", "153049.147500", "153051.482500", "153053.817500", "153056.150000", "153058.485000", "153100.817500", "153103.152500", "153105.487500", "153107.820000", "153110.155000", "153112.487500", "153114.822500", "153117.157500", "153119.490000", "153121.825000", "153124.157500", "153126.492500", "153128.827500", "153131.160000", "153133.495000", "153135.827500", "153138.162500", "153140.497500", "153142.830000", "153145.165000", "153147.497500", "153149.832500", "153152.167500", "153154.500000", "153156.835000", "153159.167500", "153201.502500", "153203.837500", "153206.170000", "153208.505000", "153210.837500", "153213.172500", "153215.507500", "153217.840000", "153220.175000", "153222.507500", "153224.842500", "153227.177500", "153229.510000", "153231.845000", "153234.177500", "153236.512500", "153238.847500", "153241.180000", "153243.515000", "153245.847500", "153248.182500", "153250.517500", "153252.850000", "153255.185000", "153257.517500", "153259.852500", "153302.187500", "153304.520000", "153306.855000", "153309.187500", "153311.522500", "153313.857500", "153316.190000", "153318.525000", "153320.857500", "153323.192500", "153325.527500", "153327.860000", "153330.195000"],
      "ContentTime": ["153004.355000", "153004.359000", "153004.362000", "153004.375000", "153004.378000", "153004.381000", "153004.384000", "153004.390000", "153004.393000", "153104.324000", "153104.328000", "153104.331000", "153104.334000", "153104.337000", "153104.341000", "153104.344000", "153104.347000", "153104.350000", "153104.353000", "153104.356000", "153104.360000", "153104.363000", "153104.373000", "153104.376000", "153104.379000", "153104.382000", "153104.385000", "153104.389000", "153104.392000", "153104.395000", "153104.398000", "153104.401000", "153104.404000", "153104.408000", "153104.411000", "153204.325000", "153204.329000", "153204.332000", "153204.335000", "153204.350000", "153204.353000", "153204.357000", "153204.360000", "153204.363000", "153204.366000", "153204.384000", "153204.387000", "153204.390000", "153204.393000", "153204.396000", "153204.399000", "153204.407000", "153204.410000", "153204.414000", "153204.417000", "153204.420000", "153204.423000", "153204.428000", "153204.431000", "153204.434000", "153304.325000", "153304.328000", "153304.332000", "153304.335000", "153304.338000", "153304.341000", "153304.345000", "153304.348000", "153304.351000", "153304.354000", "153304.357000", "153304.360000", "153304.364000", "153304.367000", "153304.370000", "153304.373000", "153304.376000", "153304.380000", "153304.383000", "153304.386000", "153304.389000", "153304.393000", "153304.396000", "153304.399000", "153304.402000", "153304.405000", "153335.173000", "153335.177000", "153335.190000", "153335.193000", "153335.197000", "153335.201000", "153335.213000", "153335.216000", "153335.221000", "153335.225000", "153335.229000", "153335.232000", "153335.236000"],
      "InstanceCreationTime": ["153004.355000", "153004.359000", "153004.362000", "153004.375000", "153004.378000", "153004.381000", "153004.384000", "153004.390000", "153004.393000", "153104.324000", "153104.328000", "153104.331000", "153104.334000", "153104.337000", "153104.341000", "153104.344000", "153104.347000", "153104.350000", "153104.353000", "153104.356000", "153104.360000", "153104.363000", "153104.373000", "153104.376000", "153104.379000", "153104.382000", "153104.385000", "153104.389000", "153104.392000", "153104.395000", "153104.398000", "153104.401000", "153104.404000", "153104.408000", "153104.411000", "153204.325000", "153204.329000", "153204.332000", "153204.335000", "153204.350000", "153204.353000", "153204.357000", "153204.360000", "153204.363000", "153204.366000", "153204.384000", "153204.387000", "153204.390000", "153204.393000", "153204.396000", "153204.399000", "153204.407000", "153204.410000", "153204.414000", "153204.417000", "153204.420000", "153204.423000", "153204.428000", "153204.431000", "153204.434000", "153304.325000", "153304.328000", "153304.332000", "153304.335000", "153304.338000", "153304.341000", "153304.345000", "153304.348000", "153304.351000", "153304.354000", "153304.357000", "153304.360000", "153304.364000", "153304.367000", "153304.370000", "153304.373000", "153304.376000", "153304.380000", "153304.383000", "153304.386000", "153304.389000", "153304.393000", "153304.396000", "153304.399000", "153304.402000", "153304.405000", "153335.173000", "153335.177000", "153335.190000", "153335.193000", "153335.197000", "153335.201000", "153335.213000", "153335.216000", "153335.221000", "153335.225000", "153335.229000", "153335.232000", "153335.236000"],
      "InstanceNumber": [1, 2, 3, 4, 5, 6, 7, 8, 9, 10, 11, 12, 13, 14, 15, 16, 17, 18, 19, 20, 21, 22, 23, 24, 25, 26, 27, 28, 29, 30, 31, 32, 33, 34, 35, 36, 37, 38, 39, 40, 41, 42, 43, 44, 45, 46, 47, 48, 49, 50, 51, 52, 53, 54, 55, 56, 57, 58, 59, 60, 61, 62, 63, 64, 65, 66, 67, 68, 69, 70, 71, 72, 73, 74, 75, 76, 77, 78, 79, 80, 81, 82, 83, 84, 85, 86, 87, 88, 89, 90, 91, 92, 93, 94, 95, 96, 97, 98, 99],
      "LargestImagePixelValue": [34236, 38487, 9579, 4339, 11567, 4757, 9890, 4444, 9826, 5306, 9880, 4363, 10615, 4784, 9254, 5375, 10169, 33130, 4330, 9736, 4585, 9033, 5129, 9190, 4135, 9952, 5049, 9721, 4507, 9654, 5200, 11154, 4714, 52583, 9644, 4581, 8892, 4181, 9285, 4524, 10646, 4270, 9947, 4438, 9364, 4684, 9965, 5033, 11367, 34160, 5460, 9371, 4667, 9806, 4812, 9989, 4320, 9414, 5137, 10445, 5157, 9428, 4699, 10033, 4992, 39943, 10678, 4664, 9711, 4506, 10966, 5754, 10213, 4699, 10848, 4623, 9411, 4284, 9429, 5095, 9731, 41846, 4559, 10444, 4298, 10546, 4475, 8946, 4359, 9205, 5065, 10431, 4014, 10100, 5645, 10287, 5160, 9463, 4490],
      "SequenceName": [
 "ep_b5#1",
 "ep_b5#1",
 "ep_b1490#2",
 "ep_b2990#3",
 "ep_b1495#4",
 "ep_b3005#5",
 "ep_b1500#6",
 "ep_b2985#7",
 "ep_b1495#8",
 "ep_b3005#9",
 "ep_b1490#10",
 "ep_b2995#11",
 "ep_b1495#12",
 "ep_b2990#13",
 "ep_b1500#14",
 "ep_b2985#15",
 "ep_b1500#16",
 "ep_b5#17",
 "ep_b3005#18",
 "ep_b1495#19",
 "ep_b2995#20",
 "ep_b1495#21",
 "ep_b3000#22",
 "ep_b1495#23",
 "ep_b3000#24",
 "ep_b1490#25",
 "ep_b2985#26",
 "ep_b1505#27",
 "ep_b2990#28",
 "ep_b1495#29",
 "ep_b3000#30",
 "ep_b1490#31",
 "ep_b3000#32",
 "ep_b5#33",
 "ep_b1505#34",
 "ep_b3000#35",
 "ep_b1490#36",
 "ep_b2985#37",
 "ep_b1495#38",
 "ep_b2995#39",
 "ep_b1500#40",
 "ep_b2995#41",
 "ep_b1505#42",
 "ep_b2990#43",
 "ep_b1495#44",
 "ep_b3000#45",
 "ep_b1495#46",
 "ep_b3000#47",
 "ep_b1490#48",
 "ep_b5#49",
 "ep_b3000#50",
 "ep_b1495#51",
 "ep_b2995#52",
 "ep_b1505#53",
 "ep_b2995#54",
 "ep_b1490#55",
 "ep_b2990#56",
 "ep_b1490#57",
 "ep_b2995#58",
 "ep_b1500#59",
 "ep_b3000#60",
 "ep_b1500#61",
 "ep_b2985#62",
 "ep_b1500#63",
 "ep_b2990#64",
 "ep_b5#65",
 "ep_b1505#66",
 "ep_b3005#67",
 "ep_b1495#68",
 "ep_b3000#69",
 "ep_b1505#70",
 "ep_b3005#71",
 "ep_b1500#72",
 "ep_b3005#73",
 "ep_b1495#74",
 "ep_b2995#75",
 "ep_b1495#76",
 "ep_b2995#77",
 "ep_b1500#78",
 "ep_b3000#79",
 "ep_b1490#80",
 "ep_b5#81",
 "ep_b2990#82",
 "ep_b1500#83",
 "ep_b2985#84",
 "ep_b1495#85",
 "ep_b2995#86",
 "ep_b1495#87",
 "ep_b2990#88",
 "ep_b1490#89",
 "ep_b2985#90",
 "ep_b1495#91",
 "ep_b2995#92",
 "ep_b1495#93",
 "ep_b3005#94",
 "ep_b1495#95",
 "ep_b2990#96",
 "ep_b1500#97",
 "ep_b3000#98"
],
      "TriggerTime": [13297.5, 15630.0, 17965.0, 20300.0, 22632.5, 24967.5, 27300.0, 29635.0, 31970.0, 34302.5, 36637.5, 38970.0, 41305.0, 43640.0, 45972.5, 48307.5, 50640.0, 52975.0, 55310.0, 57642.5, 59977.5, 62310.0, 64645.0, 66980.0, 69312.5, 71647.5, 73980.0, 76315.0, 78650.0, 80982.5, 83317.5, 85650.0, 87985.0, 90320.0, 92652.5, 94987.5, 97320.0, 99655.0, 101990.0, 104322.5, 106657.5, 108990.0, 111325.0, 113660.0, 115992.5, 118327.5, 120660.0, 122995.0, 125330.0, 127662.5, 129997.5, 132330.0, 134665.0, 137000.0, 139332.5, 141667.5, 144000.0, 146335.0, 148670.0, 151002.5, 153337.5, 155670.0, 158005.0, 160340.0, 162672.5, 165007.5, 167340.0, 169675.0, 172010.0, 174342.5, 176677.5, 179010.0, 181345.0, 183680.0, 186012.5, 188347.5, 190680.0, 193015.0, 195350.0, 197682.5, 200017.5, 202350.0, 204685.0, 207020.0, 209352.5, 211687.5, 214020.0, 216355.0, 218690.0, 221022.5, 223357.5, 225690.0, 228025.0, 230360.0, 232692.5, 235027.5, 237360.0, 239695.0, 242030.0],
      "WindowCenter": [6906.0, 6923.0, 2685.0, 1596.0, 2784.0, 1623.0, 2740.0, 1556.0, 2684.0, 1590.0, 2714.0, 1599.0, 2767.0, 1583.0, 2693.0, 1625.0, 2697.0, 6823.0, 1582.0, 2700.0, 1598.0, 2713.0, 1615.0, 2652.0, 1586.0, 2699.0, 1588.0, 2742.0, 1574.0, 2725.0, 1581.0, 2736.0, 1610.0, 6893.0, 2710.0, 1556.0, 2643.0, 1568.0, 2711.0, 1633.0, 2723.0, 1555.0, 2694.0, 1598.0, 2663.0, 1589.0, 2671.0, 1601.0, 2754.0, 6840.0, 1619.0, 2729.0, 1585.0, 2685.0, 1604.0, 2709.0, 1613.0, 2717.0, 1591.0, 2698.0, 1580.0, 2674.0, 1576.0, 2764.0, 1629.0, 6836.0, 2714.0, 1599.0, 2709.0, 1610.0, 2725.0, 1635.0, 2725.0, 1577.0, 2706.0, 1573.0, 2689.0, 1601.0, 2725.0, 1578.0, 2709.0, 6870.0, 1597.0, 2688.0, 1551.0, 2763.0, 1558.0, 2642.0, 1583.0, 2681.0, 1603.0, 2713.0, 1586.0, 2775.0, 1604.0, 2709.0, 1601.0, 2682.0, 1596.0],
      "WindowWidth": [14861.0, 14884.0, 6370.0, 4102.0, 6567.0, 4153.0, 6482.0, 4031.0, 6370.0, 4077.0, 6419.0, 4119.0, 6526.0, 4089.0, 6403.0, 4174.0, 6394.0, 14681.0, 4078.0, 6405.0, 4114.0, 6425.0, 4158.0, 6315.0, 4096.0, 6388.0, 4079.0, 6473.0, 4083.0, 6448.0, 4077.0, 6472.0, 4130.0, 14785.0, 6412.0, 4032.0, 6289.0, 4043.0, 6410.0, 4200.0, 6434.0, 4028.0, 6385.0, 4109.0, 6334.0, 4078.0, 6343.0, 4129.0, 6498.0, 14703.0, 4143.0, 6455.0, 4094.0, 6367.0, 4146.0, 6415.0, 4146.0, 6433.0, 4088.0, 6401.0, 4073.0, 6355.0, 4052.0, 6521.0, 4189.0, 14683.0, 6419.0, 4118.0, 6420.0, 4138.0, 6439.0, 4181.0, 6452.0, 4053.0, 6404.0, 4074.0, 6382.0, 4126.0, 6446.0, 4072.0, 6408.0, 14740.0, 4103.0, 6380.0, 4010.0, 6509.0, 4040.0, 6288.0, 4087.0, 6356.0, 4110.0, 6426.0, 4099.0, 6542.0, 4120.0, 6417.0, 4135.0, 6370.0, 4104.0]
    },
    "slices": {}
  }
}