{
  "AcquisitionMatrixPE": 110,
  "AcquisitionNumber": 1,
  "AcquisitionTime": "15:33:54.962500",
  "BandwidthPerPixelPhaseEncode": 12.987,
  "BaseResolution": 110,
  "BodyPartExamined": "BRAIN",
  "ConsistencyInfo": "N4_VE11C_LATEST_20160120",
  "ConversionSoftware": "dcm2niix",
  "ConversionSoftwareVersion": "v1.0.20190902",
  "DerivedVendorReportedEchoSpacing": 0.000700001,
  "DeviceSerialNumber": "167006",
  "DiffusionScheme": "Monopolar",
  "DwellTime": 2.7e-06,
  "EchoTime": 0.0816,
  "EchoTrainLength": 83,
  "EffectiveEchoSpacing": 0.000700001,
  "FlipAngle": 78,
  "ImageComments": "Unaliased_MB3_PE3_LB_SENSE1",
  "ImageOrientationPatientDICOM": [1, 0, 0, 0, 0.900319, -0.435231],
  "ImageType": [
    "ORIGINAL",
    "PRIMARY",
    "DIFFUSION",
    "NONE",
    "MB",
    "ND",
    "MOSAIC"
],
  "ImagingFrequency": 123.259,
  "InPlanePhaseEncodingDirectionDICOM": "COL",
  "InstitutionAddress": "Chemin_Queen-Mary_4565_Montreal_District_CA_H3W_1W5",
  "InstitutionName": "IUGM",
  "InstitutionalDepartmentName": "Department",
  "MRAcquisitionType": "2D",
  "MagneticFieldStrength": 3,
  "Manufacturer": "Siemens",
  "ManufacturersModelName": "Prisma_fit",
  "Modality": "MR",
  "MultibandAccelerationFactor": 3,
  "PartialFourier": 0.75,
  "PatientPosition": "HFS",
  "PercentPhaseFOV": 100,
  "PhaseEncodingDirection": "j-",
  "PhaseEncodingSteps": 83,
  "PhaseResolution": 1,
  "PixelBandwidth": 1685,
  "ProcedureStepDescription": "hcptrt_generic",
  "ProtocolName": "dMRI_dir98_PA_test_cmrr",
  "PulseSequenceDetails": "%CustomerSeq%_cmrr_mbep2d_diff",
  "ReceiveCoilActiveElements": "HC1-6",
  "ReceiveCoilName": "HeadNeck_64",
  "ReconMatrixPE": 110,
  "RepetitionTime": 2.334,
  "SAR": 0.108611,
  "ScanOptions": "PFP_EXT",
  "ScanningSequence": "EP",
  "SequenceName": "ep_b5#1",
  "SequenceVariant": "SK_SS",
  "SeriesDescription": "dMRI_dir98_PA_test_cmrr",
  "SeriesNumber": 11,
  "ShimSetting": [627, -7166, -8811, 623, 29, 150, 95, -17],
  "SliceThickness": 2,
  "SliceTiming": [0, 1.2175, 0.12, 1.34, 0.2425, 1.46, 0.365, 1.5825, 0.4875, 1.705, 0.6075, 1.825, 0.73, 1.9475, 0.8525, 2.07, 0.9725, 2.1925, 1.095, 0, 1.2175, 0.12, 1.34, 0.2425, 1.46, 0.365, 1.5825, 0.4875, 1.705, 0.6075, 1.825, 0.73, 1.9475, 0.8525, 2.07, 0.9725, 2.1925, 1.095, 0, 1.2175, 0.12, 1.34, 0.2425, 1.46, 0.365, 1.5825, 0.4875, 1.705, 0.6075, 1.825, 0.73, 1.9475, 0.8525, 2.07, 0.9725, 2.1925, 1.095],
  "SoftwareVersions": "syngo_MR_E11",
  "SpacingBetweenSlices": 2,
  "StationName": "MRC35049",
  "TotalReadoutTime": 0.0763001,
  "TxRefAmp": 208.435,
  "WipMemBlock": "1a171a70-3e40-4cbe-b8b7-e2bcd5c07690||Sequence: R016 ve11c/master r/e634e98; Dec 19 2017 11:11:25 by eja",
  "dcmmeta_affine": [
    [-2.0, 0.0, 0.0, 111.30409240722656],
    [0.0, 1.8006376028060913, -0.87046217918396, -65.903076171875],
    [0.0, 0.87046217918396, 1.8006374835968018, -75.07950592041016],
    [0.0, 0.0, 0.0, 1.0]
],
  "dcmmeta_reorient_transform": [
    [0.0, -1.0, 0.0, 109.0],
    [1.0, 0.0, 0.0, 0.0],
    [0.0, 0.0, 1.0, 0.0],
    [0.0, 0.0, 0.0, 1.0]
],
  "dcmmeta_shape": [110, 110, 57, 99],
  "dcmmeta_slice_dim": 2,
  "dcmmeta_version": 0.6,
  "global": {
    "const": {
      "AcquisitionMatrix": [110, 0, 0, 110],
      "AngioFlag": "N",
      "BitsAllocated": 16,
      "BitsStored": 16,
      "BodyPartExamined": "BRAIN",
      "CardiacNumberOfImages": 1,
      "Columns": 880,
      "EchoNumbers": 1,
      "EchoTime": 81.6,
      "EchoTrainLength": 83,
      "FlipAngle": 78.0,
      "HighBit": 15,
      "ImageOrientationPatient": [1.0, 0.0, 0.0, 0.0, 0.90031877697973, -0.4352310878346],
      "ImagePositionPatient": [-881.30409276485, -823.6118778834, 354.92881048052],
      "ImageType": [
        "ORIGINAL",
        "PRIMARY",
        "DIFFUSION",
        "NONE",
        "MB",
        "ND",
        "MOSAIC"
],
      "ImagedNucleus": "1H",
      "ImagingFrequency": 123.259284,
      "InPlanePhaseEncodingDirection": "COL",
      "MRAcquisitionType": "2D",
      "MagneticFieldStrength": 3.0,
      "Manufacturer": "SIEMENS",
      "ManufacturerModelName": "Prisma_fit",
      "Modality": "MR",
      "NominalInterval": 0,
      "NumberOfAverages": 1.0,
      "NumberOfPhaseEncodingSteps": 83,
      "PercentPhaseFieldOfView": 100.0,
      "PercentSampling": 100.0,
      "PerformedProcedureStepStartTime": "150805.711000",
      "PhotometricInterpretation": "MONOCHROME2",
      "PixelBandwidth": 1685.0,
      "PixelRepresentation": 0,
      "PixelSpacing": [2.0, 2.0],
      "ProtocolName": "dMRI_dir98_PA_test_cmrr",
      "RepetitionTime": 2334.0,
      "Rows": 880,
      "SAR": 0.10861140620072,
      "SamplesPerPixel": 1,
      "ScanOptions": [
        "PFP",
        "EXT"
],
      "ScanningSequence": "EP",
      "SequenceVariant": [
        "SK",
        "SS"
],
      "SeriesDescription": "dMRI_dir98_PA_test_cmrr",
      "SeriesNumber": 11,
      "SeriesTime": "153459.650000",
      "SliceLocation": -38.912420998031,
      "SliceThickness": 2.0,
      "SmallestImagePixelValue": 0,
      "SoftwareVersions": "syngo MR E11",
      "SpacingBetweenSlices": 1.9999999688456,
      "SpecificCharacterSet": "ISO_IR 100",
      "StudyID": "1",
      "StudyTime": "150805.634000",
      "TransmitCoilName": "Body",
      "VariableFlipAngleFlag": "N",
      "WindowCenterWidthExplanation": "Algo1",
      "dBdt": 0.0},
    "slices": {}
  },
  "time": {
    "samples": {
      "AcquisitionNumber": [1, 2, 3, 4, 5, 6, 7, 8, 9, 10, 11, 12, 13, 14, 15, 16, 17, 18, 19, 20, 21, 22, 23, 24, 25, 26, 27, 28, 29, 30, 31, 32, 33, 34, 35, 36, 37, 38, 39, 40, 41, 42, 43, 44, 45, 46, 47, 48, 49, 50, 51, 52, 53, 54, 55, 56, 57, 58, 59, 60, 61, 62, 63, 64, 65, 66, 67, 68, 69, 70, 71, 72, 73, 74, 75, 76, 77, 78, 79, 80, 81, 82, 83, 84, 85, 86, 87, 88, 89, 90, 91, 92, 93, 94, 95, 96, 97, 98, 99],
      "AcquisitionTime": ["153354.962500", "153357.295000", "153359.630000", "153401.965000", "153404.297500", "153406.632500", "153408.965000", "153411.300000", "153413.635000", "153415.967500", "153418.302500", "153420.635000", "153422.970000", "153425.305000", "153427.637500", "153429.972500", "153432.305000", "153434.640000", "153436.975000", "153439.307500", "153441.642500", "153443.975000", "153446.310000", "153448.645000", "153450.977500", "153453.312500", "153455.645000", "153457.980000", "153500.315000", "153502.647500", "153504.982500", "153507.315000", "153509.650000", "153511.985000", "153514.317500", "153516.652500", "153518.985000", "153521.320000", "153523.655000", "153525.987500", "153528.322500", "153530.655000", "153532.990000", "153535.325000", "153537.657500", "153539.992500", "153542.325000", "153544.660000", "153546.995000", "153549.327500", "153551.662500", "153553.995000", "153556.330000", "153558.665000", "153600.997500", "153603.332500", "153605.665000", "153608.000000", "153610.335000", "153612.667500", "153615.002500", "153617.335000", "153619.670000", "153622.005000", "153624.337500", "153626.672500", "153629.005000", "153631.340000", "153633.675000", "153636.007500", "153638.342500", "153640.675000", "153643.010000", "153645.345000", "153647.677500", "153650.012500", "153652.345000", "153654.680000", "153657.015000", "153659.347500", "153701.682500", "153704.015000", "153706.350000", "153708.685000", "153711.017500", "153713.352500", "153715.685000", "153718.020000", "153720.355000", "153722.687500", "153725.022500", "153727.355000", "153729.690000", "153732.025000", "153734.357500", "153736.692500", "153739.025000", "153741.360000", "153743.695000"],
      "ContentTime": ["153459.653000", "153459.657000", "153459.660000", "153459.664000", "153459.667000", "153459.670000", "153459.673000", "153459.676000", "153459.680000", "153459.683000", "153459.686000", "153459.689000", "153459.692000", "153459.695000", "153459.699000", "153459.702000", "153459.705000", "153459.708000", "153459.716000", "153459.719000", "153459.722000", "153459.725000", "153459.728000", "153459.731000", "153459.734000", "153459.738000", "153459.741000", "153559.615000", "153559.619000", "153559.622000", "153559.625000", "153559.628000", "153559.639000", "153559.642000", "153559.645000", "153559.649000", "153559.652000", "153559.655000", "153559.658000", "153559.661000", "153559.664000", "153559.670000", "153559.673000", "153559.676000", "153559.679000", "153559.682000", "153559.685000", "153559.688000", "153559.692000", "153559.695000", "153559.698000", "153559.702000", "153559.705000", "153659.616000", "153659.619000", "153659.623000", "153659.626000", "153659.629000", "153659.632000", "153659.635000", "153659.639000", "153659.642000", "153659.645000", "153659.648000", "153659.651000", "153659.654000", "153659.657000", "153659.661000", "153659.664000", "153659.667000", "153659.670000", "153659.673000", "153659.677000", "153659.680000", "153659.683000", "153659.686000", "153659.689000", "153659.692000", "153748.698000", "153748.706000", "153748.710000", "153748.713000", "153748.717000", "153748.723000", "153748.726000", "153748.730000", "153748.733000", "153748.736000", "153748.739000", "153748.743000", "153748.746000", "153748.750000", "153748.753000", "153748.757000", "153748.760000", "153748.763000", "153748.766000", "153748.770000", "153748.773000"],
      "InstanceCreationTime": ["153459.653000", "153459.657000", "153459.660000", "153459.664000", "153459.667000", "153459.670000", "153459.673000", "153459.676000", "153459.680000", "153459.683000", "153459.686000", "153459.689000", "153459.692000", "153459.695000", "153459.699000", "153459.702000", "153459.705000", "153459.708000", "153459.716000", "153459.719000", "153459.722000", "153459.725000", "153459.728000", "153459.731000", "153459.734000", "153459.738000", "153459.741000", "153559.615000", "153559.619000", "153559.622000", "153559.625000", "153559.628000", "153559.639000", "153559.642000", "153559.645000", "153559.649000", "153559.652000", "153559.655000", "153559.658000", "153559.661000", "153559.664000", "153559.670000", "153559.673000", "153559.676000", "153559.679000", "153559.682000", "153559.685000", "153559.688000", "153559.692000", "153559.695000", "153559.698000", "153559.702000", "153559.705000", "153659.616000", "153659.619000", "153659.623000", "153659.626000", "153659.629000", "153659.632000", "153659.635000", "153659.639000", "153659.642000", "153659.645000", "153659.648000", "153659.651000", "153659.654000", "153659.657000", "153659.661000", "153659.664000", "153659.667000", "153659.670000", "153659.673000", "153659.677000", "153659.680000", "153659.683000", "153659.686000", "153659.689000", "153659.692000", "153748.698000", "153748.706000", "153748.710000", "153748.713000", "153748.717000", "153748.723000", "153748.726000", "153748.730000", "153748.733000", "153748.736000", "153748.739000", "153748.743000", "153748.746000", "153748.750000", "153748.753000", "153748.757000", "153748.760000", "153748.763000", "153748.766000", "153748.770000", "153748.773000"],
      "InstanceNumber": [1, 2, 3, 4, 5, 6, 7, 8, 9, 10, 11, 12, 13, 14, 15, 16, 17, 18, 19, 20, 21, 22, 23, 24, 25, 26, 27, 28, 29, 30, 31, 32, 33, 34, 35, 36, 37, 38, 39, 40, 41, 42, 43, 44, 45, 46, 47, 48, 49, 50, 51, 52, 53, 54, 55, 56, 57, 58, 59, 60, 61, 62, 63, 64, 65, 66, 67, 68, 69, 70, 71, 72, 73, 74, 75, 76, 77, 78, 79, 80, 81, 82, 83, 84, 85, 86, 87, 88, 89, 90, 91, 92, 93, 94, 95, 96, 97, 98, 99],
      "LargestImagePixelValue": [34371, 32161, 9477, 4071, 11279, 4996, 10338, 4391, 9635, 4700, 10784, 4575, 10509, 4685, 9915, 6229, 10571, 30962, 4667, 10114, 5263, 9290, 5281, 9354, 4142, 9714, 4856, 10720, 4881, 9546, 5190, 11653, 5221, 31326, 9907, 4620, 9547, 4263, 9593, 4470, 10012, 4264, 10852, 4677, 9294, 4622, 9688, 4997, 10690, 32425, 5122, 9661, 4567, 9600, 5150, 9873, 4690, 9749, 5422, 10567, 5265, 9492, 4747, 10235, 5038, 30149, 10344, 4462, 9350, 4731, 10593, 5972, 9956, 4579, 10694, 4381, 9517, 4029, 9475, 5171, 10032, 30214, 4313, 10584, 4280, 10338, 4883, 9078, 4031, 10165, 4350, 10283, 4012, 10243, 5282, 10403, 5255, 9476, 4630],
      "SequenceName": [
 "ep_b5#1",
 "ep_b5#1",
 "ep_b1490#2",
 "ep_b2990#3",
 "ep_b1495#4",
 "ep_b3005#5",
 "ep_b1500#6",
 "ep_b2985#7",
 "ep_b1495#8",
 "ep_b3005#9",
 "ep_b1490#10",
 "ep_b2995#11",
 "ep_b1495#12",
 "ep_b2990#13",
 "ep_b1500#14",
 "ep_b2985#15",
 "ep_b1500#16",
 "ep_b5#17",
 "ep_b3005#18",
 "ep_b1495#19",
 "ep_b2995#20",
 "ep_b1495#21",
 "ep_b3000#22",
 "ep_b1495#23",
 "ep_b3000#24",
 "ep_b1490#25",
 "ep_b2985#26",
 "ep_b1505#27",
 "ep_b2990#28",
 "ep_b1495#29",
 "ep_b3000#30",
 "ep_b1490#31",
 "ep_b3000#32",
 "ep_b5#33",
 "ep_b1505#34",
 "ep_b3000#35",
 "ep_b1490#36",
 "ep_b2985#37",
 "ep_b1495#38",
 "ep_b2995#39",
 "ep_b1500#40",
 "ep_b2995#41",
 "ep_b1505#42",
 "ep_b2990#43",
 "ep_b1495#44",
 "ep_b3000#45",
 "ep_b1495#46",
 "ep_b3000#47",
 "ep_b1490#48",
 "ep_b5#49",
 "ep_b3000#50",
 "ep_b1495#51",
 "ep_b2995#52",
 "ep_b1505#53",
 "ep_b2995#54",
 "ep_b1490#55",
 "ep_b2990#56",
 "ep_b1490#57",
 "ep_b2995#58",
 "ep_b1500#59",
 "ep_b3000#60",
 "ep_b1500#61",
 "ep_b2985#62",
 "ep_b1500#63",
 "ep_b2990#64",
 "ep_b5#65",
 "ep_b1505#66",
 "ep_b3005#67",
 "ep_b1495#68",
 "ep_b3000#69",
 "ep_b1505#70",
 "ep_b3005#71",
 "ep_b1500#72",
 "ep_b3005#73",
 "ep_b1495#74",
 "ep_b2995#75",
 "ep_b1495#76",
 "ep_b2995#77",
 "ep_b1500#78",
 "ep_b3000#79",
 "ep_b1490#80",
 "ep_b5#81",
 "ep_b2990#82",
 "ep_b1500#83",
 "ep_b2985#84",
 "ep_b1495#85",
 "ep_b2995#86",
 "ep_b1495#87",
 "ep_b2990#88",
 "ep_b1490#89",
 "ep_b2985#90",
 "ep_b1495#91",
 "ep_b2995#92",
 "ep_b1495#93",
 "ep_b3005#94",
 "ep_b1495#95",
 "ep_b2990#96",
 "ep_b1500#97",
 "ep_b3000#98"
],
      "TriggerTime": [13297.5, 15630.0, 17965.0, 20297.5, 22632.5, 24967.5, 27300.0, 29635.0, 31967.5, 34302.5, 36637.5, 38970.0, 41305.0, 43637.5, 45972.5, 48307.5, 50640.0, 52975.0, 55307.5, 57642.5, 59977.5, 62310.0, 64645.0, 66977.5, 69312.5, 71647.5, 73980.0, 76315.0, 78647.5, 80982.5, 83317.5, 85650.0, 87985.0, 90317.5, 92652.5, 94987.5, 97320.0, 99655.0, 101987.5, 104322.5, 106657.5, 108990.0, 111325.0, 113657.5, 115992.5, 118327.5, 120660.0, 122995.0, 125327.5, 127662.5, 129997.5, 132330.0, 134665.0, 136997.5, 139332.5, 141667.5, 144000.0, 146335.0, 148667.5, 151002.5, 153337.5, 155670.0, 158005.0, 160337.5, 162672.5, 165007.5, 167340.0, 169675.0, 172007.5, 174342.5, 176677.5, 179010.0, 181345.0, 183677.5, 186012.5, 188347.5, 190680.0, 193015.0, 195347.5, 197682.5, 200017.5, 202350.0, 204685.0, 207017.5, 209352.5, 211687.5, 214020.0, 216355.0, 218687.5, 221022.5, 223357.5, 225690.0, 228025.0, 230357.5, 232692.5, 235027.5, 237360.0, 239695.0, 242027.5],
      "WindowCenter": [6859.0, 6859.0, 2677.0, 1568.0, 2768.0, 1619.0, 2737.0, 1553.0, 2677.0, 1565.0, 2707.0, 1598.0, 2763.0, 1582.0, 2702.0, 1641.0, 2695.0, 6798.0, 1594.0, 2708.0, 1608.0, 2729.0, 1625.0, 2644.0, 1588.0, 2682.0, 1579.0, 2749.0, 1587.0, 2723.0, 1591.0, 2753.0, 1623.0, 6792.0, 2720.0, 1554.0, 2645.0, 1566.0, 2708.0, 1619.0, 2719.0, 1558.0, 2706.0, 1608.0, 2662.0, 1576.0, 2670.0, 1599.0, 2739.0, 6787.0, 1605.0, 2736.0, 1570.0, 2670.0, 1615.0, 2707.0, 1625.0, 2709.0, 1591.0, 2703.0, 1580.0, 2672.0, 1574.0, 2761.0, 1631.0, 6776.0, 2714.0, 1583.0, 2702.0, 1622.0, 2721.0, 1632.0, 2710.0, 1564.0, 2706.0, 1570.0, 2683.0, 1604.0, 2723.0, 1592.0, 2709.0, 6797.0, 1583.0, 2687.0, 1550.0, 2751.0, 1568.0, 2651.0, 1573.0, 2696.0, 1582.0, 2702.0, 1586.0, 2779.0, 1605.0, 2719.0, 1601.0, 2684.0, 1598.0],
      "WindowWidth": [14761.0, 14758.0, 6355.0, 4050.0, 6535.0, 4145.0, 6470.0, 4022.0, 6361.0, 4031.0, 6400.0, 4116.0, 6515.0, 4086.0, 6409.0, 4203.0, 6388.0, 14622.0, 4099.0, 6412.0, 4129.0, 6450.0, 4173.0, 6294.0, 4099.0, 6357.0, 4064.0, 6479.0, 4105.0, 6443.0, 4093.0, 6501.0, 4155.0, 14610.0, 6427.0, 4028.0, 6289.0, 4036.0, 6404.0, 4174.0, 6426.0, 4035.0, 6403.0, 4124.0, 6327.0, 4055.0, 6339.0, 4127.0, 6468.0, 14603.0, 4118.0, 6463.0, 4067.0, 6343.0, 4162.0, 6408.0, 4164.0, 6412.0, 4085.0, 6414.0, 4070.0, 6350.0, 4045.0, 6516.0, 4192.0, 14580.0, 6419.0, 4087.0, 6410.0, 4158.0, 6428.0, 4175.0, 6426.0, 4032.0, 6400.0, 4067.0, 6364.0, 4134.0, 6441.0, 4098.0, 6405.0, 14623.0, 4076.0, 6378.0, 4006.0, 6490.0, 4056.0, 6309.0, 4069.0, 6380.0, 4074.0, 6407.0, 4097.0, 6549.0, 4121.0, 6431.0, 4132.0, 6373.0, 4107.0]
    },
    "slices": {}
  }
}