{
  "AcquisitionMatrixPE": 110,
  "AcquisitionNumber": 1,
  "AcquisitionTime": "14:09:48.280000",
  "BandwidthPerPixelPhaseEncode": 12.987,
  "BaseResolution": 110,
  "BodyPartExamined": "BRAIN",
  "ConsistencyInfo": "N4_VE11C_LATEST_20160120",
  "ConversionSoftware": "dcm2niix",
  "ConversionSoftwareVersion": "v1.0.20190902",
  "DerivedVendorReportedEchoSpacing": 0.000700001,
  "DeviceSerialNumber": "167006",
  "DiffusionScheme": "Monopolar",
  "DwellTime": 2.7e-06,
  "EchoTime": 0.0816,
  "EchoTrainLength": 83,
  "EffectiveEchoSpacing": 0.000700001,
  "FlipAngle": 78,
  "ImageComments": "Unaliased_MB3_PE3_LB_SENSE1",
  "ImageOrientationPatientDICOM": [1, 0, 0, 0, 0.838671, -0.544639],
  "ImageType": [
    "ORIGINAL",
    "PRIMARY",
    "DIFFUSION",
    "NONE",
    "MB",
    "ND",
    "MOSAIC"
],
  "ImagingFrequency": 123.259,
  "InPlanePhaseEncodingDirectionDICOM": "COL",
  "InstitutionAddress": "Chemin_Queen-Mary_4565_Montreal_District_CA_H3W_1W5",
  "InstitutionName": "IUGM",
  "InstitutionalDepartmentName": "Department",
  "MRAcquisitionType": "2D",
  "MagneticFieldStrength": 3,
  "Manufacturer": "Siemens",
  "ManufacturersModelName": "Prisma_fit",
  "Modality": "MR",
  "MultibandAccelerationFactor": 3,
  "PartialFourier": 0.75,
  "PatientPosition": "HFS",
  "PercentPhaseFOV": 100,
  "PhaseEncodingDirection": "j",
  "PhaseEncodingSteps": 83,
  "PhaseResolution": 1,
  "PixelBandwidth": 1685,
  "ProcedureStepDescription": "anat_generic",
  "ProtocolName": "dMRI_dir98_PA_test_cmrr",
  "PulseSequenceDetails": "%CustomerSeq%_cmrr_mbep2d_diff",
  "ReceiveCoilActiveElements": "HC1-7",
  "ReceiveCoilName": "HeadNeck_64",
  "ReconMatrixPE": 110,
  "RepetitionTime": 2.334,
  "SAR": 0.124863,
  "ScanOptions": "PFP_EXT",
  "ScanningSequence": "EP",
  "SequenceName": "ep_b5#1",
  "SequenceVariant": "SK_SS",
  "SeriesDescription": "dMRI_dir98_PA_test_cmrr",
  "SeriesNumber": 11,
  "ShimSetting": [624, -7199, -8860, 413, -4, -229, 87, -36],
  "SliceThickness": 2,
  "SliceTiming": [0, 1.2175, 0.1225, 1.34, 0.245, 1.4625, 0.365, 1.585, 0.4875, 1.705, 0.61, 1.8275, 0.7325, 1.95, 0.8525, 2.07, 0.975, 2.1925, 1.0975, 0, 1.2175, 0.1225, 1.34, 0.245, 1.4625, 0.365, 1.585, 0.4875, 1.705, 0.61, 1.8275, 0.7325, 1.95, 0.8525, 2.07, 0.975, 2.1925, 1.0975, 0, 1.2175, 0.1225, 1.34, 0.245, 1.4625, 0.365, 1.585, 0.4875, 1.705, 0.61, 1.8275, 0.7325, 1.95, 0.8525, 2.07, 0.975, 2.1925, 1.0975],
  "SoftwareVersions": "syngo_MR_E11",
  "SpacingBetweenSlices": 2,
  "StationName": "MRC35049",
  "TotalReadoutTime": 0.0763001,
  "TxRefAmp": 243.359,
  "WipMemBlock": "606e5b2b-3799-4ca9-895f-56223db15c08||Sequence: R016 ve11c/master r/e634e98; Dec 19 2017 11:11:25 by eja",
  "dcmmeta_affine": [
    [-2.0, 0.0, 0.0, 109.49686431884766],
    [0.0, 1.677341103553772, -1.0892781019210815, -63.96159362792969],
    [0.0, 1.0892781019210815, 1.677341103553772, -103.9251937866211],
    [0.0, 0.0, 0.0, 1.0]
],
  "dcmmeta_reorient_transform": [
    [0.0, -1.0, 0.0, 109.0],
    [1.0, 0.0, 0.0, 0.0],
    [0.0, 0.0, 1.0, 0.0],
    [0.0, 0.0, 0.0, 1.0]
],
  "dcmmeta_shape": [110, 110, 57, 99],
  "dcmmeta_slice_dim": 2,
  "dcmmeta_version": 0.6,
  "global": {
    "const": {
      "AcquisitionMatrix": [110, 0, 0, 110],
      "AngioFlag": "N",
      "BitsAllocated": 16,
      "BitsStored": 16,
      "BodyPartExamined": "BRAIN",
      "CardiacNumberOfImages": 1,
      "Columns": 880,
      "EchoNumbers": 1,
      "EchoTime": 81.6,
      "EchoTrainLength": 83,
      "FlipAngle": 78.0,
      "HighBit": 15,
      "ImageOrientationPatient": [1.0, 0.0, 0.0, 0.0, 0.83867056370374, -0.5446390415466],
      "ImagePositionPatient": [-879.49686384201, -764.64492226168, 434.17818099343],
      "ImageType": [
        "ORIGINAL",
        "PRIMARY",
        "DIFFUSION",
        "NONE",
        "MB",
        "ND",
        "MOSAIC"
],
      "ImagedNucleus": "1H",
      "ImagingFrequency": 123.25906,
      "InPlanePhaseEncodingDirection": "COL",
      "MRAcquisitionType": "2D",
      "MagneticFieldStrength": 3.0,
      "Manufacturer": "SIEMENS",
      "ManufacturerModelName": "Prisma_fit",
      "Modality": "MR",
      "NominalInterval": 0,
      "NumberOfAverages": 1.0,
      "NumberOfPhaseEncodingSteps": 83,
      "PercentPhaseFieldOfView": 100.0,
      "PercentSampling": 100.0,
      "PerformedProcedureStepStartTime": "133001.872000",
      "PhotometricInterpretation": "MONOCHROME2",
      "PixelBandwidth": 1685.0,
      "PixelRepresentation": 0,
      "PixelSpacing": [2.0, 2.0],
      "ProtocolName": "dMRI_dir98_PA_test_cmrr",
      "RepetitionTime": 2334.0,
      "Rows": 880,
      "SAR": 0.12486313138906,
      "SamplesPerPixel": 1,
      "ScanOptions": [
        "PFP",
        "EXT"
],
      "ScanningSequence": "EP",
      "SequenceVariant": [
        "SK",
        "SS"
],
      "SeriesDescription": "dMRI_dir98_PA_test_cmrr",
      "SeriesNumber": 11,
      "SeriesTime": "141022.347000",
      "SliceLocation": -52.323017782496,
      "SliceThickness": 2.0,
      "SmallestImagePixelValue": 0,
      "SoftwareVersions": "syngo MR E11",
      "SpacingBetweenSlices": 1.9999999952563,
      "SpecificCharacterSet": "ISO_IR 100",
      "StudyID": "1",
      "StudyTime": "133001.778000",
      "TransmitCoilName": "Body",
      "VariableFlipAngleFlag": "N",
      "WindowCenterWidthExplanation": "Algo1",
      "dBdt": 0.0},
    "slices": {}
  },
  "time": {
    "samples": {
      "AcquisitionNumber": [1, 2, 3, 4, 5, 6, 7, 8, 9, 10, 11, 12, 13, 14, 15, 16, 17, 18, 19, 20, 21, 22, 23, 24, 25, 26, 27, 28, 29, 30, 31, 32, 33, 34, 35, 36, 37, 38, 39, 40, 41, 42, 43, 44, 45, 46, 47, 48, 49, 50, 51, 52, 53, 54, 55, 56, 57, 58, 59, 60, 61, 62, 63, 64, 65, 66, 67, 68, 69, 70, 71, 72, 73, 74, 75, 76, 77, 78, 79, 80, 81, 82, 83, 84, 85, 86, 87, 88, 89, 90, 91, 92, 93, 94, 95, 96, 97, 98, 99],
      "AcquisitionTime": ["140948.280000", "140950.615000", "140952.950000", "140955.282500", "140957.617500", "140959.950000", "141002.285000", "141004.620000", "141006.952500", "141009.287500", "141011.620000", "141013.955000", "141016.290000", "141018.622500", "141020.957500", "141023.290000", "141025.625000", "141027.960000", "141030.292500", "141032.627500", "141034.960000", "141037.295000", "141039.630000", "141041.962500", "141044.297500", "141046.630000", "141048.965000", "141051.300000", "141053.632500", "141055.967500", "141058.300000", "141100.635000", "141102.970000", "141105.302500", "141107.637500", "141109.970000", "141112.305000", "141114.640000", "141116.972500", "141119.307500", "141121.640000", "141123.975000", "141126.310000", "141128.642500", "141130.977500", "141133.310000", "141135.645000", "141137.980000", "141140.312500", "141142.647500", "141144.980000", "141147.315000", "141149.650000", "141151.982500", "141154.317500", "141156.650000", "141158.985000", "141201.320000", "141203.652500", "141205.987500", "141208.320000", "141210.655000", "141212.990000", "141215.322500", "141217.657500", "141219.990000", "141222.325000", "141224.660000", "141226.992500", "141229.327500", "141231.660000", "141233.995000", "141236.330000", "141238.662500", "141240.997500", "141243.330000", "141245.665000", "141248.000000", "141250.332500", "141252.667500", "141255.000000", "141257.335000", "141259.670000", "141302.002500", "141304.337500", "141306.670000", "141309.005000", "141311.340000", "141313.672500", "141316.007500", "141318.340000", "141320.675000", "141323.010000", "141325.342500", "141327.677500", "141330.010000", "141332.345000", "141334.680000", "141337.012500"],
      "ContentTime": ["141022.349000", "141022.353000", "141022.356000", "141022.359000", "141022.362000", "141022.365000", "141022.369000", "141022.372000", "141022.375000", "141022.378000", "141022.381000", "141022.384000", "141022.406000", "141022.409000", "141122.313000", "141122.316000", "141122.327000", "141122.330000", "141122.333000", "141122.336000", "141122.339000", "141122.342000", "141122.346000", "141122.349000", "141122.352000", "141122.355000", "141122.358000", "141122.361000", "141122.364000", "141122.367000", "141122.370000", "141122.373000", "141122.376000", "141122.379000", "141122.383000", "141122.386000", "141122.389000", "141122.392000", "141122.395000", "141122.398000", "141222.313000", "141222.316000", "141222.319000", "141222.323000", "141222.326000", "141222.329000", "141222.332000", "141222.335000", "141222.338000", "141222.341000", "141222.344000", "141222.347000", "141222.351000", "141222.357000", "141222.360000", "141222.363000", "141222.366000", "141222.369000", "141222.372000", "141222.375000", "141222.379000", "141222.382000", "141222.385000", "141222.388000", "141222.391000", "141322.313000", "141322.316000", "141322.319000", "141322.323000", "141322.326000", "141322.329000", "141322.332000", "141322.341000", "141322.344000", "141322.347000", "141322.350000", "141322.353000", "141322.356000", "141322.359000", "141322.362000", "141322.366000", "141322.369000", "141322.372000", "141322.375000", "141322.378000", "141322.381000", "141322.384000", "141322.387000", "141322.391000", "141322.394000", "141322.397000", "141341.491000", "141341.494000", "141341.497000", "141341.514000", "141341.517000", "141341.520000", "141341.523000", "141341.531000"],
      "InstanceCreationTime": ["141022.349000", "141022.353000", "141022.356000", "141022.359000", "141022.362000", "141022.365000", "141022.369000", "141022.372000", "141022.375000", "141022.378000", "141022.381000", "141022.384000", "141022.406000", "141022.409000", "141122.313000", "141122.316000", "141122.327000", "141122.330000", "141122.333000", "141122.336000", "141122.339000", "141122.342000", "141122.346000", "141122.349000", "141122.352000", "141122.355000", "141122.358000", "141122.361000", "141122.364000", "141122.367000", "141122.370000", "141122.373000", "141122.376000", "141122.379000", "141122.383000", "141122.386000", "141122.389000", "141122.392000", "141122.395000", "141122.398000", "141222.313000", "141222.316000", "141222.319000", "141222.323000", "141222.326000", "141222.329000", "141222.332000", "141222.335000", "141222.338000", "141222.341000", "141222.344000", "141222.347000", "141222.351000", "141222.357000", "141222.360000", "141222.363000", "141222.366000", "141222.369000", "141222.372000", "141222.375000", "141222.379000", "141222.382000", "141222.385000", "141222.388000", "141222.391000", "141322.313000", "141322.316000", "141322.319000", "141322.323000", "141322.326000", "141322.329000", "141322.332000", "141322.341000", "141322.344000", "141322.347000", "141322.350000", "141322.353000", "141322.356000", "141322.359000", "141322.362000", "141322.366000", "141322.369000", "141322.372000", "141322.375000", "141322.378000", "141322.381000", "141322.384000", "141322.387000", "141322.391000", "141322.394000", "141322.397000", "141341.491000", "141341.494000", "141341.497000", "141341.514000", "141341.517000", "141341.520000", "141341.523000", "141341.531000"],
      "InstanceNumber": [1, 2, 3, 4, 5, 6, 7, 8, 9, 10, 11, 12, 13, 14, 15, 16, 17, 18, 19, 20, 21, 22, 23, 24, 25, 26, 27, 28, 29, 30, 31, 32, 33, 34, 35, 36, 37, 38, 39, 40, 41, 42, 43, 44, 45, 46, 47, 48, 49, 50, 51, 52, 53, 54, 55, 56, 57, 58, 59, 60, 61, 62, 63, 64, 65, 66, 67, 68, 69, 70, 71, 72, 73, 74, 75, 76, 77, 78, 79, 80, 81, 82, 83, 84, 85, 86, 87, 88, 89, 90, 91, 92, 93, 94, 95, 96, 97, 98, 99],
      "LargestImagePixelValue": [51175, 51352, 15432, 6962, 14347, 7285, 13134, 8799, 15999, 6783, 15317, 6711, 14392, 6899, 15035, 7648, 14608, 51835, 6740, 14946, 6439, 15263, 7451, 16210, 6834, 15363, 8185, 16014, 6538, 15509, 8555, 15170, 7657, 50595, 15525, 6946, 16178, 8175, 15439, 6209, 15724, 6698, 14114, 6392, 15789, 6159, 16016, 7509, 15615, 48050, 7961, 15060, 6473, 15239, 7655, 14969, 6274, 15008, 6191, 14961, 7691, 14888, 7058, 13422, 6272, 50520, 15938, 6280, 15561, 6379, 16476, 8043, 14218, 7358, 16236, 6516, 15501, 6707, 14896, 7399, 14641, 49961, 6917, 15189, 7551, 15049, 8196, 15676, 6274, 15375, 8380, 15260, 6473, 14012, 7808, 13649, 6797, 14935, 6914],
      "SequenceName": [
 "ep_b5#1",
 "ep_b5#1",
 "ep_b1490#2",
 "ep_b2990#3",
 "ep_b1495#4",
 "ep_b3005#5",
 "ep_b1505#6",
 "ep_b2985#7",
 "ep_b1495#8",
 "ep_b3005#9",
 "ep_b1490#10",
 "ep_b2990#11",
 "ep_b1495#12",
 "ep_b2990#13",
 "ep_b1500#14",
 "ep_b2985#15",
 "ep_b1500#16",
 "ep_b5#17",
 "ep_b3000#18",
 "ep_b1495#19",
 "ep_b3000#20",
 "ep_b1495#21",
 "ep_b2995#22",
 "ep_b1495#23",
 "ep_b3000#24",
 "ep_b1490#25",
 "ep_b2985#26",
 "ep_b1505#27",
 "ep_b2990#28",
 "ep_b1495#29",
 "ep_b3000#30",
 "ep_b1490#31",
 "ep_b3000#32",
 "ep_b5#33",
 "ep_b1505#34",
 "ep_b3000#35",
 "ep_b1490#36",
 "ep_b2985#37",
 "ep_b1495#38",
 "ep_b3000#39",
 "ep_b1500#40",
 "ep_b2995#41",
 "ep_b1505#42",
 "ep_b2990#43",
 "ep_b1495#44",
 "ep_b3000#45",
 "ep_b1495#46",
 "ep_b3000#47",
 "ep_b1490#48",
 "ep_b5#49",
 "ep_b3000#50",
 "ep_b1495#51",
 "ep_b2995#52",
 "ep_b1505#53",
 "ep_b2995#54",
 "ep_b1490#55",
 "ep_b2990#56",
 "ep_b1490#57",
 "ep_b3000#58",
 "ep_b1500#59",
 "ep_b3000#60",
 "ep_b1500#61",
 "ep_b2985#62",
 "ep_b1500#63",
 "ep_b2990#64",
 "ep_b5#65",
 "ep_b1505#66",
 "ep_b3000#67",
 "ep_b1495#68",
 "ep_b3000#69",
 "ep_b1505#70",
 "ep_b3005#71",
 "ep_b1500#72",
 "ep_b3005#73",
 "ep_b1495#74",
 "ep_b2990#75",
 "ep_b1495#76",
 "ep_b2995#77",
 "ep_b1500#78",
 "ep_b3000#79",
 "ep_b1490#80",
 "ep_b5#81",
 "ep_b2990#82",
 "ep_b1500#83",
 "ep_b2985#84",
 "ep_b1495#85",
 "ep_b2995#86",
 "ep_b1495#87",
 "ep_b2990#88",
 "ep_b1490#89",
 "ep_b2985#90",
 "ep_b1495#91",
 "ep_b2995#92",
 "ep_b1495#93",
 "ep_b3005#94",
 "ep_b1500#95",
 "ep_b2990#96",
 "ep_b1500#97",
 "ep_b2995#98"
],
      "TriggerTime": [13295.0, 15630.0, 17962.5, 20297.5, 22632.5, 24965.0, 27300.0, 29632.5, 31967.5, 34302.5, 36635.0, 38970.0, 41302.5, 43637.5, 45972.5, 48305.0, 50640.0, 52972.5, 55307.5, 57642.5, 59975.0, 62310.0, 64642.5, 66977.5, 69312.5, 71645.0, 73980.0, 76312.5, 78647.5, 80982.5, 83315.0, 85650.0, 87982.5, 90317.5, 92652.5, 94985.0, 97320.0, 99652.5, 101987.5, 104322.5, 106655.0, 108990.0, 111322.5, 113657.5, 115992.5, 118325.0, 120660.0, 122992.5, 125327.5, 127662.5, 129995.0, 132330.0, 134662.5, 136997.5, 139332.5, 141665.0, 144000.0, 146332.5, 148667.5, 151002.5, 153335.0, 155670.0, 158002.5, 160337.5, 162672.5, 165005.0, 167340.0, 169672.5, 172007.5, 174342.5, 176675.0, 179010.0, 181342.5, 183677.5, 186012.5, 188345.0, 190680.0, 193012.5, 195347.5, 197682.5, 200015.0, 202350.0, 204682.5, 207017.5, 209352.5, 211685.0, 214020.0, 216352.5, 218687.5, 221022.5, 223355.0, 225690.0, 228022.5, 230357.5, 232692.5, 235025.0, 237360.0, 239692.5, 242027.5],
      "WindowCenter": [7656.0, 7656.0, 2834.0, 1656.0, 2801.0, 1678.0, 2773.0, 1740.0, 2844.0, 1640.0, 2818.0, 1685.0, 2829.0, 1709.0, 2796.0, 1711.0, 2790.0, 7600.0, 1669.0, 2842.0, 1616.0, 2846.0, 1706.0, 2865.0, 1691.0, 2800.0, 1689.0, 2816.0, 1689.0, 2811.0, 1702.0, 2828.0, 1687.0, 7578.0, 2818.0, 1662.0, 2851.0, 1703.0, 2805.0, 1646.0, 2848.0, 1659.0, 2760.0, 1668.0, 2856.0, 1605.0, 2860.0, 1712.0, 2817.0, 7529.0, 1703.0, 2848.0, 1665.0, 2800.0, 1721.0, 2801.0, 1664.0, 2830.0, 1593.0, 2841.0, 1675.0, 2788.0, 1667.0, 2780.0, 1650.0, 7582.0, 2819.0, 1669.0, 2830.0, 1614.0, 2836.0, 1715.0, 2796.0, 1658.0, 2827.0, 1670.0, 2833.0, 1699.0, 2825.0, 1647.0, 2787.0, 7523.0, 1667.0, 2816.0, 1667.0, 2801.0, 1760.0, 2838.0, 1654.0, 2790.0, 1701.0, 2839.0, 1662.0, 2821.0, 1694.0, 2772.0, 1686.0, 2792.0, 1675.0],
      "WindowWidth": [16600.0, 16595.0, 6739.0, 4250.0, 6658.0, 4314.0, 6605.0, 4425.0, 6744.0, 4243.0, 6707.0, 4314.0, 6713.0, 4381.0, 6646.0, 4387.0, 6654.0, 16485.0, 4304.0, 6744.0, 4173.0, 6736.0, 4372.0, 6779.0, 4334.0, 6657.0, 4328.0, 6708.0, 4354.0, 6670.0, 4356.0, 6713.0, 4326.0, 16422.0, 6713.0, 4279.0, 6755.0, 4358.0, 6655.0, 4237.0, 6752.0, 4265.0, 6589.0, 4298.0, 6768.0, 4155.0, 6765.0, 4391.0, 6702.0, 16335.0, 4363.0, 6737.0, 4287.0, 6673.0, 4397.0, 6656.0, 4278.0, 6721.0, 4136.0, 6732.0, 4304.0, 6646.0, 4296.0, 6606.0, 4256.0, 16430.0, 6724.0, 4304.0, 6713.0, 4166.0, 6738.0, 4386.0, 6643.0, 4260.0, 6717.0, 4307.0, 6730.0, 4338.0, 6702.0, 4244.0, 6634.0, 16304.0, 4296.0, 6696.0, 4263.0, 6661.0, 4476.0, 6731.0, 4243.0, 6649.0, 4348.0, 6734.0, 4270.0, 6682.0, 4348.0, 6607.0, 4343.0, 6658.0, 4301.0]
    },
    "slices": {}
  }
}