{
  "AcquisitionMatrixPE": 110,
  "AcquisitionNumber": 1,
  "AcquisitionTime": "11:01:25.760000",
  "BandwidthPerPixelPhaseEncode": 12.987,
  "BaseResolution": 110,
  "BodyPartExamined": "BRAIN",
  "CoilCombinationMethod": "Sum of Squares",
  "ConsistencyInfo": "N4_VE11C_LATEST_20160120",
  "ConversionSoftware": "dcm2niix",
  "ConversionSoftwareVersion": "v1.0.20220505",
  "DerivedVendorReportedEchoSpacing": 0.000700001,
  "DeviceSerialNumber": "167006",
  "DiffusionScheme": "Monopolar",
  "DwellTime": 2.7e-06,
  "EchoTime": 0.0768,
  "EchoTrainLength": 83,
  "EffectiveEchoSpacing": 0.000700001,
  "FlipAngle": 78,
  "HeudiconvVersion": "0.5.3.post811+g6206e14",
  "ImageComments": "Unaliased MB3/PE3/LB SENSE1+",
  "ImageOrientationPatientDICOM": [1, 0, 0, 0, 0.881303, -0.472551],
  "ImageOrientationText": "Tra>Cor(-28.2)",
  "ImageType": [
    "ORIGINAL",
    "PRIMARY",
    "DIFFUSION",
    "NONE",
    "MB",
    "ND",
    "MOSAIC"
],
  "ImagingFrequency": 123.259,
  "InPlanePhaseEncodingDirectionDICOM": "COL",
  "InstitutionAddress": "Chemin Queen-Mary 4565,Montreal,District,CA,H3W 1W5",
  "InstitutionName": "IUGM",
  "InstitutionalDepartmentName": "Department",
  "MRAcquisitionType": "2D",
  "MagneticFieldStrength": 3,
  "Manufacturer": "Siemens",
  "ManufacturersModelName": "Prisma_fit",
  "MatrixCoilMode": "SENSE",
  "Modality": "MR",
  "MultibandAccelerationFactor": 3,
  "PartialFourier": 0.75,
  "PatientPosition": "HFS",
  "PercentPhaseFOV": 100,
  "PercentSampling": 100,
  "PhaseEncodingDirection": "j-",
  "PhaseEncodingSteps": 83,
  "PhaseResolution": 1,
  "PixelBandwidth": 1685,
  "ProcedureStepDescription": "anat^generic",
  "ProtocolName": "dMRI_dir106_AP_test_cmrr",
  "PulseSequenceDetails": "%CustomerSeq%\\cmrr_mbep2d_diff",
  "ReceiveCoilActiveElements": "HC1-6",
  "ReceiveCoilName": "HeadNeck_64",
  "ReconMatrixPE": 110,
  "RepetitionTime": 2.243,
  "SAR": 0.147824,
  "ScanOptions": "PFP\\EXT",
  "ScanningSequence": "EP",
  "SequenceName": "ep_b0",
  "SequenceVariant": "SK\\SS",
  "SeriesDescription": "dMRI_dir106_AP_test_cmrr",
  "SeriesNumber": 10,
  "ShimSetting": [596, -7253, -8872, 294, 10, -180, 2, 87],
  "SliceThickness": 2,
  "SliceTiming": [0, 1.17, 0.1175, 1.2875, 0.2325, 1.4025, 0.35, 1.52, 0.4675, 1.6375, 0.585, 1.755, 0.7025, 1.8725, 0.8175, 1.9875, 0.935, 2.105, 1.0525, 0, 1.17, 0.1175, 1.2875, 0.2325, 1.4025, 0.35, 1.52, 0.4675, 1.6375, 0.585, 1.755, 0.7025, 1.8725, 0.8175, 1.9875, 0.935, 2.105, 1.0525, 0, 1.17, 0.1175, 1.2875, 0.2325, 1.4025, 0.35, 1.52, 0.4675, 1.6375, 0.585, 1.755, 0.7025, 1.8725, 0.8175, 1.9875, 0.935, 2.105, 1.0525],
  "SoftwareVersions": "syngo MR E11",
  "SpacingBetweenSlices": 2,
  "StationName": "MRC35049",
  "TotalReadoutTime": 0.0763001,
  "TxRefAmp": 251.969,
  "WipMemBlock": "a656624e-1700-4dd9-ab04-ae8e07ea677b||Sequence: R017 ve11c/master r/75a17815+; Jun 28 2022 16:41:33 by eja",
  "dcmmeta_affine": [
    [-2.0, 0.0, 0.0, 113.11132049560547],
    [0.0, 1.7626068592071533, -0.9451016187667847, -73.2052993774414],
    [0.0, 0.9451016187667847, 1.7626068592071533, -90.09336853027344],
    [0.0, 0.0, 0.0, 1.0]
],
  "dcmmeta_reorient_transform": [
    [0.0, -1.0, 0.0, 109.0],
    [1.0, 0.0, 0.0, 0.0],
    [0.0, 0.0, 1.0, 0.0],
    [0.0, 0.0, 0.0, 1.0]
],
  "dcmmeta_shape": [110, 110, 57, 107],
  "dcmmeta_slice_dim": 2,
  "dcmmeta_version": 0.6,
  "global": {
    "const": {
      "AcquisitionMatrix": [110, 0, 0, 110],
      "AngioFlag": "N",
      "BitsAllocated": 16,
      "BitsStored": 16,
      "BodyPartExamined": "BRAIN",
      "CardiacNumberOfImages": 1,
      "Columns": 880,
      "EchoNumbers": 1,
      "EchoTime": 76.8,
      "EchoTrainLength": 83,
      "FlipAngle": 78.0,
      "HighBit": 15,
      "ImageOrientationPatient": [1.0, 0.0, 0.0, 0.0, 0.88130343505599, -0.4725507965907],
      "ImagePositionPatient": [-883.1113216877, -797.5224962532, 376.78682059821],
      "ImageType": [
        "ORIGINAL",
        "PRIMARY",
        "DIFFUSION",
        "NONE",
        "MB",
        "ND",
        "MOSAIC"
],
      "ImagedNucleus": "1H",
      "ImagingFrequency": 123.258907,
      "InPlanePhaseEncodingDirection": "COL",
      "MRAcquisitionType": "2D",
      "MagneticFieldStrength": 3.0,
      "Manufacturer": "SIEMENS",
      "ManufacturerModelName": "Prisma_fit",
      "Modality": "MR",
      "NominalInterval": 0,
      "NumberOfAverages": 1.0,
      "NumberOfPhaseEncodingSteps": 83,
      "PercentPhaseFieldOfView": 100.0,
      "PercentSampling": 100.0,
      "PerformedProcedureStepStartTime": "103736.373000",
      "PhotometricInterpretation": "MONOCHROME2",
      "PixelBandwidth": 1685.0,
      "PixelRepresentation": 0,
      "PixelSpacing": [2.0, 2.0],
      "ProtocolName": "dMRI_dir106_AP_test_cmrr",
      "RepetitionTime": 2243.0,
      "Rows": 880,
      "SAR": 0.14782402364076,
      "SamplesPerPixel": 1,
      "ScanOptions": [
        "PFP",
        "EXT"
],
      "ScanningSequence": "EP",
      "SequenceVariant": [
        "SK",
        "SS"
],
      "SeriesDescription": "dMRI_dir106_AP_test_cmrr",
      "SeriesNumber": 10,
      "SeriesTime": "110221.839000",
      "SliceLocation": -44.806371626431,
      "SliceThickness": 2.0,
      "SmallestImagePixelValue": 0,
      "SoftwareVersions": "syngo MR E11",
      "SpacingBetweenSlices": 1.9999999922595,
      "SpecificCharacterSet": "ISO_IR 100",
      "StudyID": "1",
      "StudyTime": "103736.307000",
      "TransmitCoilName": "Body",
      "VariableFlipAngleFlag": "N",
      "WindowCenterWidthExplanation": "Algo1",
      "dBdt": 0.0},
    "slices": {}
  },
  "time": {
    "samples": {
      "AcquisitionNumber": [1, 2, 3, 4, 5, 6, 7, 8, 9, 10, 11, 12, 13, 14, 15, 16, 17, 18, 19, 20, 21, 22, 23, 24, 25, 26, 27, 28, 29, 30, 31, 32, 33, 34, 35, 36, 37, 38, 39, 40, 41, 42, 43, 44, 45, 46, 47, 48, 49, 50, 51, 52, 53, 54, 55, 56, 57, 58, 59, 60, 61, 62, 63, 64, 65, 66, 67, 68, 69, 70, 71, 72, 73, 74, 75, 76, 77, 78, 79, 80, 81, 82, 83, 84, 85, 86, 87, 88, 89, 90, 91, 92, 93, 94, 95, 96, 97, 98, 99, 100, 101, 102, 103, 104, 105, 106, 107],
      "AcquisitionTime": ["110125.760000", "110128.002500", "110130.245000", "110132.490000", "110134.732500", "110136.975000", "110139.217500", "110141.460000", "110143.705000", "110145.947500", "110148.190000", "110150.432500", "110152.675000", "110154.920000", "110157.162500", "110159.405000", "110201.647500", "110203.890000", "110206.135000", "110208.377500", "110210.620000", "110212.862500", "110215.105000", "110217.350000", "110219.592500", "110221.835000", "110224.077500", "110226.320000", "110228.565000", "110230.807500", "110233.050000", "110235.292500", "110237.535000", "110239.780000", "110242.022500", "110244.265000", "110246.507500", "110248.750000", "110250.995000", "110253.237500", "110255.480000", "110257.722500", "110259.965000", "110302.210000", "110304.452500", "110306.695000", "110308.937500", "110311.180000", "110313.425000", "110315.667500", "110317.910000", "110320.152500", "110322.395000", "110324.640000", "110326.882500", "110329.125000", "110331.367500", "110333.610000", "110335.855000", "110338.097500", "110340.340000", "110342.582500", "110344.825000", "110347.070000", "110349.312500", "110351.555000", "110353.797500", "110356.040000", "110358.285000", "110400.527500", "110402.770000", "110405.012500", "110407.255000", "110409.500000", "110411.742500", "110413.985000", "110416.227500", "110418.470000", "110420.715000", "110422.957500", "110425.200000", "110427.442500", "110429.685000", "110431.930000", "110434.172500", "110436.415000", "110438.657500", "110440.900000", "110443.145000", "110445.387500", "110447.630000", "110449.872500", "110452.115000", "110454.360000", "110456.602500", "110458.845000", "110501.087500", "110503.330000", "110505.575000", "110507.817500", "110510.060000", "110512.302500", "110514.545000", "110516.790000", "110519.032500", "110521.275000", "110523.517500"],
      "ContentTime": ["110221.842000", "110221.845000", "110221.848000", "110221.851000", "110221.854000", "110221.857000", "110221.861000", "110221.864000", "110221.867000", "110221.870000", "110221.873000", "110221.876000", "110221.879000", "110221.882000", "110221.885000", "110221.889000", "110221.892000", "110221.895000", "110221.898000", "110221.901000", "110221.904000", "110221.907000", "110221.910000", "110221.913000", "110321.794000", "110321.797000", "110321.801000", "110321.815000", "110321.818000", "110321.822000", "110321.825000", "110321.828000", "110321.831000", "110321.834000", "110321.837000", "110321.840000", "110321.843000", "110321.846000", "110321.849000", "110321.852000", "110321.855000", "110321.858000", "110321.862000", "110321.865000", "110321.868000", "110321.871000", "110321.874000", "110321.877000", "110321.880000", "110321.883000", "110321.886000", "110421.795000", "110421.889000", "110421.892000", "110421.895000", "110421.898000", "110421.901000", "110421.904000", "110421.907000", "110421.911000", "110421.914000", "110421.917000", "110421.920000", "110421.923000", "110421.926000", "110421.929000", "110421.932000", "110421.935000", "110421.938000", "110421.942000", "110421.945000", "110421.948000", "110421.951000", "110421.954000", "110421.957000", "110421.960000", "110421.963000", "110421.966000", "110521.794000", "110521.797000", "110521.800000", "110521.803000", "110521.807000", "110521.810000", "110521.813000", "110521.816000", "110521.819000", "110521.822000", "110521.825000", "110521.828000", "110521.831000", "110521.835000", "110521.838000", "110521.841000", "110521.844000", "110521.847000", "110521.850000", "110521.853000", "110521.856000", "110521.860000", "110521.863000", "110521.866000", "110521.869000", "110521.872000", "110528.541000", "110528.544000", "110528.547000"],
      "InstanceCreationTime": ["110221.842000", "110221.845000", "110221.848000", "110221.851000", "110221.854000", "110221.857000", "110221.861000", "110221.864000", "110221.867000", "110221.870000", "110221.873000", "110221.876000", "110221.879000", "110221.882000", "110221.885000", "110221.889000", "110221.892000", "110221.895000", "110221.898000", "110221.901000", "110221.904000", "110221.907000", "110221.910000", "110221.913000", "110321.794000", "110321.797000", "110321.801000", "110321.815000", "110321.818000", "110321.822000", "110321.825000", "110321.828000", "110321.831000", "110321.834000", "110321.837000", "110321.840000", "110321.843000", "110321.846000", "110321.849000", "110321.852000", "110321.855000", "110321.858000", "110321.862000", "110321.865000", "110321.868000", "110321.871000", "110321.874000", "110321.877000", "110321.880000", "110321.883000", "110321.886000", "110421.795000", "110421.889000", "110421.892000", "110421.895000", "110421.898000", "110421.901000", "110421.904000", "110421.907000", "110421.911000", "110421.914000", "110421.917000", "110421.920000", "110421.923000", "110421.926000", "110421.929000", "110421.932000", "110421.935000", "110421.938000", "110421.942000", "110421.945000", "110421.948000", "110421.951000", "110421.954000", "110421.957000", "110421.960000", "110421.963000", "110421.966000", "110521.794000", "110521.797000", "110521.800000", "110521.803000", "110521.807000", "110521.810000", "110521.813000", "110521.816000", "110521.819000", "110521.822000", "110521.825000", "110521.828000", "110521.831000", "110521.835000", "110521.838000", "110521.841000", "110521.844000", "110521.847000", "110521.850000", "110521.853000", "110521.856000", "110521.860000", "110521.863000", "110521.866000", "110521.869000", "110521.872000", "110528.541000", "110528.544000", "110528.547000"],
      "InstanceNumber": [1, 2, 3, 4, 5, 6, 7, 8, 9, 10, 11, 12, 13, 14, 15, 16, 17, 18, 19, 20, 21, 22, 23, 24, 25, 26, 27, 28, 29, 30, 31, 32, 33, 34, 35, 36, 37, 38, 39, 40, 41, 42, 43, 44, 45, 46, 47, 48, 49, 50, 51, 52, 53, 54, 55, 56, 57, 58, 59, 60, 61, 62, 63, 64, 65, 66, 67, 68, 69, 70, 71, 72, 73, 74, 75, 76, 77, 78, 79, 80, 81, 82, 83, 84, 85, 86, 87, 88, 89, 90, 91, 92, 93, 94, 95, 96, 97, 98, 99, 100, 101, 102, 103, 104, 105, 106, 107],
      "LargestImagePixelValue": [50655, 50475, 12520, 7274, 13019, 14537, 24164, 7904, 7082, 6507, 13612, 24458, 8121, 7791, 6687, 7221, 12774, 7338, 6664, 7536, 8862, 48026, 13948, 7197, 12979, 13733, 7527, 6890, 8603, 8005, 23875, 7489, 12687, 7044, 6567, 24348, 7702, 8381, 12635, 6496, 7339, 48392, 7021, 7059, 7946, 25536, 12498, 8200, 6662, 13798, 7823, 14547, 12161, 7235, 24388, 12518, 7867, 12922, 8338, 6438, 12876, 48252, 12337, 7496, 6536, 8267, 7527, 24338, 13532, 13510, 6911, 7383, 6687, 6754, 14338, 6754, 6543, 7479, 13618, 13073, 8022, 48074, 14975, 7596, 7478, 12954, 13349, 7603, 13926, 6924, 6321, 6818, 12662, 8610, 6624, 7118, 24091, 12903, 7721, 13172, 13599, 49003, 7124, 8008, 12536, 7975, 6697],
      "SequenceName": [
 "ep_b0",
 "ep_b0",
 "ep_b1000#2",
 "ep_b2000#3",
 "ep_b1000#4",
 "ep_b1000#5",
 "ep_b300#6",
 "ep_b2000#7",
 "ep_b2000#8",
 "ep_b2000#9",
 "ep_b1000#10",
 "ep_b300#11",
 "ep_b2000#12",
 "ep_b2000#13",
 "ep_b2000#14",
 "ep_b2000#15",
 "ep_b1000#16",
 "ep_b2000#17",
 "ep_b2000#18",
 "ep_b2000#19",
 "ep_b2000#20",
 "ep_b0",
 "ep_b1000#22",
 "ep_b2000#23",
 "ep_b1000#24",
 "ep_b1000#25",
 "ep_b2000#26",
 "ep_b2000#27",
 "ep_b2000#28",
 "ep_b2000#29",
 "ep_b300#30",
 "ep_b2000#31",
 "ep_b1000#32",
 "ep_b2000#33",
 "ep_b2000#34",
 "ep_b300#35",
 "ep_b2000#36",
 "ep_b2000#37",
 "ep_b1000#38",
 "ep_b2000#39",
 "ep_b2000#40",
 "ep_b0",
 "ep_b2000#42",
 "ep_b2000#43",
 "ep_b2000#44",
 "ep_b300#45",
 "ep_b1000#46",
 "ep_b2000#47",
 "ep_b2000#48",
 "ep_b1000#49",
 "ep_b2000#50",
 "ep_b1000#51",
 "ep_b1000#52",
 "ep_b2000#53",
 "ep_b300#54",
 "ep_b1000#55",
 "ep_b2000#56",
 "ep_b1000#57",
 "ep_b2000#58",
 "ep_b2000#59",
 "ep_b1000#60",
 "ep_b0",
 "ep_b1000#62",
 "ep_b2000#63",
 "ep_b2000#64",
 "ep_b2000#65",
 "ep_b2000#66",
 "ep_b300#67",
 "ep_b1000#68",
 "ep_b1000#69",
 "ep_b2000#70",
 "ep_b2000#71",
 "ep_b2000#72",
 "ep_b2000#73",
 "ep_b1000#74",
 "ep_b2000#75",
 "ep_b2000#76",
 "ep_b2000#77",
 "ep_b1000#78",
 "ep_b1000#79",
 "ep_b2000#80",
 "ep_b0",
 "ep_b1000#82",
 "ep_b2000#83",
 "ep_b2000#84",
 "ep_b1000#85",
 "ep_b1000#86",
 "ep_b2000#87",
 "ep_b1000#88",
 "ep_b2000#89",
 "ep_b2000#90",
 "ep_b2000#91",
 "ep_b1000#92",
 "ep_b2000#93",
 "ep_b2000#94",
 "ep_b2000#95",
 "ep_b300#96",
 "ep_b1000#97",
 "ep_b2000#98",
 "ep_b1000#99",
 "ep_b1000#100",
 "ep_b0",
 "ep_b2000#102",
 "ep_b2000#103",
 "ep_b1000#104",
 "ep_b2000#105",
 "ep_b2000#106"
],
      "TriggerTime": [12837.5, 15080.0, 17322.5, 19565.0, 21810.0, 24052.5, 26295.0, 28537.5, 30780.0, 33025.0, 35267.5, 37510.0, 39752.5, 41995.0, 44240.0, 46482.5, 48725.0, 50967.5, 53210.0, 55455.0, 57697.5, 59940.0, 62182.5, 64425.0, 66670.0, 68912.5, 71155.0, 73397.5, 75640.0, 77885.0, 80127.5, 82370.0, 84612.5, 86855.0, 89100.0, 91342.5, 93585.0, 95827.5, 98070.0, 100315.0, 102557.5, 104800.0, 107042.5, 109285.0, 111530.0, 113772.5, 116015.0, 118257.5, 120500.0, 122745.0, 124987.5, 127230.0, 129472.5, 131715.0, 133960.0, 136202.5, 138445.0, 140687.5, 142930.0, 145175.0, 147417.5, 149660.0, 151902.5, 154145.0, 156390.0, 158632.5, 160875.0, 163117.5, 165360.0, 167605.0, 169847.5, 172090.0, 174332.5, 176575.0, 178820.0, 181062.5, 183305.0, 185547.5, 187790.0, 190035.0, 192277.5, 194520.0, 196762.5, 199005.0, 201250.0, 203492.5, 205735.0, 207977.5, 210220.0, 212465.0, 214707.5, 216950.0, 219192.5, 221435.0, 223680.0, 225922.5, 228165.0, 230407.5, 232650.0, 234895.0, 237137.5, 239380.0, 241622.5, 243865.0, 246110.0, 248352.5, 250595.0],
      "WindowCenter": [7501.0, 7508.0, 3372.0, 2157.0, 3389.0, 3358.0, 5393.0, 2178.0, 2125.0, 2110.0, 3382.0, 5360.0, 2140.0, 2114.0, 2124.0, 2187.0, 3367.0, 2155.0, 2149.0, 2168.0, 2173.0, 7425.0, 3380.0, 2138.0, 3364.0, 3382.0, 2156.0, 2113.0, 2170.0, 2143.0, 5369.0, 2117.0, 3336.0, 2177.0, 2117.0, 5387.0, 2160.0, 2173.0, 3328.0, 2125.0, 2118.0, 7394.0, 2139.0, 2092.0, 2159.0, 5347.0, 3331.0, 2128.0, 2126.0, 3358.0, 2179.0, 3380.0, 3349.0, 2140.0, 5364.0, 3348.0, 2180.0, 3356.0, 2154.0, 2124.0, 3330.0, 7405.0, 3369.0, 2134.0, 2139.0, 2174.0, 2133.0, 5355.0, 3331.0, 3386.0, 2118.0, 2156.0, 2131.0, 2141.0, 3345.0, 2142.0, 2123.0, 2152.0, 3345.0, 3364.0, 2194.0, 7424.0, 3375.0, 2141.0, 2154.0, 3378.0, 3368.0, 2134.0, 3373.0, 2118.0, 2125.0, 2102.0, 3367.0, 2185.0, 2141.0, 2131.0, 5365.0, 3386.0, 2167.0, 3372.0, 3381.0, 7423.0, 2091.0, 2142.0, 3354.0, 2135.0, 2125.0],
      "WindowWidth": [16437.0, 16451.0, 7850.0, 5343.0, 7876.0, 7796.0, 11872.0, 5375.0, 5282.0, 5246.0, 7854.0, 11806.0, 5289.0, 5237.0, 5276.0, 5405.0, 7835.0, 5332.0, 5315.0, 5360.0, 5355.0, 16239.0, 7847.0, 5295.0, 7826.0, 7849.0, 5340.0, 5235.0, 5341.0, 5301.0, 11815.0, 5253.0, 7773.0, 5392.0, 5252.0, 11858.0, 5328.0, 5363.0, 7758.0, 5280.0, 5244.0, 16181.0, 5299.0, 5205.0, 5331.0, 11780.0, 7761.0, 5261.0, 5262.0, 7807.0, 5385.0, 7848.0, 7800.0, 5309.0, 11817.0, 7794.0, 5379.0, 7804.0, 5301.0, 5276.0, 7765.0, 16199.0, 7850.0, 5283.0, 5313.0, 5364.0, 5275.0, 11802.0, 7765.0, 7858.0, 5255.0, 5345.0, 5280.0, 5311.0, 7785.0, 5321.0, 5275.0, 5334.0, 7787.0, 7826.0, 5414.0, 16228.0, 7830.0, 5286.0, 5337.0, 7865.0, 7835.0, 5282.0, 7835.0, 5252.0, 5278.0, 5220.0, 7819.0, 5379.0, 5312.0, 5301.0, 11811.0, 7875.0, 5362.0, 7835.0, 7854.0, 16226.0, 5202.0, 5294.0, 7800.0, 5290.0, 5282.0]
    },
    "slices": {}
  }
}