{
  "AcquisitionMatrixPE": 110,
  "AcquisitionNumber": 1,
  "AcquisitionTime": "11:01:25.760000",
  "BandwidthPerPixelPhaseEncode": 12.987,
  "BaseResolution": 110,
  "BodyPartExamined": "BRAIN",
  "CoilCombinationMethod": "Sum of Squares",
  "ConsistencyInfo": "N4_VE11C_LATEST_20160120",
  "ConversionSoftware": "dcm2niix",
  "ConversionSoftwareVersion": "v1.0.20220505",
  "DerivedVendorReportedEchoSpacing": 0.000700001,
  "DeviceSerialNumber": "167006",
  "DiffusionScheme": "Monopolar",
  "DwellTime": 2.7e-06,
  "EchoTime": 0.0768,
  "EchoTrainLength": 83,
  "EffectiveEchoSpacing": 0.000700001,
  "FlipAngle": 78,
  "HeudiconvVersion": "0.5.3.post811+g6206e14",
  "ImageComments": "Unaliased MB3/PE3/LB SENSE1+",
  "ImageOrientationPatientDICOM": [1, 0, 0, 0, 0.881303, -0.472551],
  "ImageOrientationText": "Tra>Cor(-28.2)",
  "ImageType": [
    "ORIGINAL",
    "PRIMARY",
    "DIFFUSION",
    "NONE",
    "MB",
    "ND",
    "MOSAIC"
],
  "ImagingFrequency": 123.259,
  "InPlanePhaseEncodingDirectionDICOM": "COL",
  "InstitutionAddress": "Chemin Queen-Mary 4565,Montreal,District,CA,H3W 1W5",
  "InstitutionName": "IUGM",
  "InstitutionalDepartmentName": "Department",
  "MRAcquisitionType": "2D",
  "MagneticFieldStrength": 3,
  "Manufacturer": "Siemens",
  "ManufacturersModelName": "Prisma_fit",
  "MatrixCoilMode": "SENSE",
  "Modality": "MR",
  "MultibandAccelerationFactor": 3,
  "PartialFourier": 0.75,
  "PatientPosition": "HFS",
  "PercentPhaseFOV": 100,
  "PercentSampling": 100,
  "PhaseEncodingDirection": "j-",
  "PhaseEncodingSteps": 83,
  "PhaseResolution": 1,
  "PixelBandwidth": 1685,
  "ProcedureStepDescription": "anat^generic",
  "ProtocolName": "dMRI_dir106_AP_test_cmrr",
  "PulseSequenceDetails": "%CustomerSeq%\\cmrr_mbep2d_diff",
  "ReceiveCoilActiveElements": "HC1-6",
  "ReceiveCoilName": "HeadNeck_64",
  "ReconMatrixPE": 110,
  "RepetitionTime": 2.243,
  "SAR": 0.147824,
  "ScanOptions": "PFP\\EXT",
  "ScanningSequence": "EP",
  "SequenceName": "ep_b0",
  "SequenceVariant": "SK\\SS",
  "SeriesDescription": "dMRI_dir106_AP_test_cmrr",
  "SeriesNumber": 11,
  "ShimSetting": [596, -7253, -8872, 294, 10, -180, 2, 87],
  "SliceThickness": 2,
  "SliceTiming": [0, 1.17, 0.1175, 1.2875, 0.2325, 1.4025, 0.35, 1.52, 0.4675, 1.6375, 0.585, 1.755, 0.7025, 1.8725, 0.8175, 1.9875, 0.935, 2.105, 1.0525, 0, 1.17, 0.1175, 1.2875, 0.2325, 1.4025, 0.35, 1.52, 0.4675, 1.6375, 0.585, 1.755, 0.7025, 1.8725, 0.8175, 1.9875, 0.935, 2.105, 1.0525, 0, 1.17, 0.1175, 1.2875, 0.2325, 1.4025, 0.35, 1.52, 0.4675, 1.6375, 0.585, 1.755, 0.7025, 1.8725, 0.8175, 1.9875, 0.935, 2.105, 1.0525],
  "SoftwareVersions": "syngo MR E11",
  "SpacingBetweenSlices": 2,
  "StationName": "MRC35049",
  "TotalReadoutTime": 0.0763001,
  "TxRefAmp": 251.969,
  "WipMemBlock": "a656624e-1700-4dd9-ab04-ae8e07ea677b||Sequence: R017 ve11c/master r/75a17815+; Jun 28 2022 16:41:33 by eja",
  "dcmmeta_affine": [
    [-2.0, 0.0, 0.0, 113.11132049560547],
    [0.0, 1.7626068592071533, -0.9451016187667847, -73.2052993774414],
    [0.0, 0.9451016187667847, 1.7626068592071533, -90.09336853027344],
    [0.0, 0.0, 0.0, 1.0]
],
  "dcmmeta_reorient_transform": [
    [0.0, -1.0, 0.0, 109.0],
    [1.0, 0.0, 0.0, 0.0],
    [0.0, 0.0, 1.0, 0.0],
    [0.0, 0.0, 0.0, 1.0]
],
  "dcmmeta_shape": [110, 110, 57, 107],
  "dcmmeta_slice_dim": 2,
  "dcmmeta_version": 0.6,
  "global": {
    "const": {
      "AcquisitionMatrix": [110, 0, 0, 110],
      "AngioFlag": "N",
      "BitsAllocated": 16,
      "BitsStored": 16,
      "BodyPartExamined": "BRAIN",
      "CardiacNumberOfImages": 1,
      "Columns": 880,
      "EchoNumbers": 1,
      "EchoTime": 76.8,
      "EchoTrainLength": 83,
      "FlipAngle": 78.0,
      "HighBit": 15,
      "ImageOrientationPatient": [1.0, 0.0, 0.0, 0.0, 0.88130343505599, -0.4725507965907],
      "ImagePositionPatient": [-883.1113216877, -797.5224962532, 376.78682059821],
      "ImageType": [
        "ORIGINAL",
        "PRIMARY",
        "DIFFUSION",
        "NONE",
        "MB",
        "ND",
        "MOSAIC"
],
      "ImagedNucleus": "1H",
      "ImagingFrequency": 123.258907,
      "InPlanePhaseEncodingDirection": "COL",
      "LargestImagePixelValue": 4095,
      "MRAcquisitionType": "2D",
      "MagneticFieldStrength": 3.0,
      "Manufacturer": "SIEMENS",
      "ManufacturerModelName": "Prisma_fit",
      "Modality": "MR",
      "NominalInterval": 0,
      "NumberOfAverages": 1.0,
      "NumberOfPhaseEncodingSteps": 83,
      "PercentPhaseFieldOfView": 100.0,
      "PercentSampling": 100.0,
      "PerformedProcedureStepStartTime": "103736.373000",
      "PhotometricInterpretation": "MONOCHROME2",
      "PixelBandwidth": 1685.0,
      "PixelRepresentation": 0,
      "PixelSpacing": [2.0, 2.0],
      "ProtocolName": "dMRI_dir106_AP_test_cmrr",
      "RepetitionTime": 2243.0,
      "RescaleIntercept": -4096.0,
      "RescaleSlope": 2.0,
      "RescaleType": "US",
      "Rows": 880,
      "SAR": 0.14782402364076,
      "SamplesPerPixel": 1,
      "ScanOptions": [
        "PFP",
        "EXT"
],
      "ScanningSequence": "EP",
      "SequenceVariant": [
        "SK",
        "SS"
],
      "SeriesDescription": "dMRI_dir106_AP_test_cmrr",
      "SeriesNumber": 11,
      "SeriesTime": "110222.377000",
      "SliceLocation": -44.806371626431,
      "SliceThickness": 2.0,
      "SmallestImagePixelValue": 0,
      "SoftwareVersions": "syngo MR E11",
      "SpacingBetweenSlices": 1.9999999922595,
      "SpecificCharacterSet": "ISO_IR 100",
      "StudyID": "1",
      "StudyTime": "103736.307000",
      "TransmitCoilName": "Body",
      "VariableFlipAngleFlag": "N",
      "WindowCenterWidthExplanation": "Algo1",
      "dBdt": 0.0},
    "slices": {}
  },
  "time": {
    "samples": {
      "AcquisitionNumber": [1, 2, 3, 4, 5, 6, 7, 8, 9, 10, 11, 12, 13, 14, 15, 16, 17, 18, 19, 20, 21, 22, 23, 24, 25, 26, 27, 28, 29, 30, 31, 32, 33, 34, 35, 36, 37, 38, 39, 40, 41, 42, 43, 44, 45, 46, 47, 48, 49, 50, 51, 52, 53, 54, 55, 56, 57, 58, 59, 60, 61, 62, 63, 64, 65, 66, 67, 68, 69, 70, 71, 72, 73, 74, 75, 76, 77, 78, 79, 80, 81, 82, 83, 84, 85, 86, 87, 88, 89, 90, 91, 92, 93, 94, 95, 96, 97, 98, 99, 100, 101, 102, 103, 104, 105, 106, 107],
      "AcquisitionTime": ["110125.760000", "110128.002500", "110130.245000", "110132.490000", "110134.732500", "110136.975000", "110139.217500", "110141.460000", "110143.705000", "110145.947500", "110148.190000", "110150.432500", "110152.675000", "110154.920000", "110157.162500", "110159.405000", "110201.647500", "110203.890000", "110206.135000", "110208.377500", "110210.620000", "110212.862500", "110215.105000", "110217.350000", "110219.592500", "110221.835000", "110224.077500", "110226.320000", "110228.565000", "110230.807500", "110233.050000", "110235.292500", "110237.535000", "110239.780000", "110242.022500", "110244.265000", "110246.507500", "110248.750000", "110250.995000", "110253.237500", "110255.480000", "110257.722500", "110259.965000", "110302.210000", "110304.452500", "110306.695000", "110308.937500", "110311.180000", "110313.425000", "110315.667500", "110317.910000", "110320.152500", "110322.395000", "110324.640000", "110326.882500", "110329.125000", "110331.367500", "110333.610000", "110335.855000", "110338.097500", "110340.340000", "110342.582500", "110344.825000", "110347.070000", "110349.312500", "110351.555000", "110353.797500", "110356.040000", "110358.285000", "110400.527500", "110402.770000", "110405.012500", "110407.255000", "110409.500000", "110411.742500", "110413.985000", "110416.227500", "110418.470000", "110420.715000", "110422.957500", "110425.200000", "110427.442500", "110429.685000", "110431.930000", "110434.172500", "110436.415000", "110438.657500", "110440.900000", "110443.145000", "110445.387500", "110447.630000", "110449.872500", "110452.115000", "110454.360000", "110456.602500", "110458.845000", "110501.087500", "110503.330000", "110505.575000", "110507.817500", "110510.060000", "110512.302500", "110514.545000", "110516.790000", "110519.032500", "110521.275000", "110523.517500"],
      "ContentTime": ["110222.379000", "110222.382000", "110222.386000", "110222.389000", "110222.392000", "110222.395000", "110222.398000", "110222.402000", "110222.405000", "110222.408000", "110222.411000", "110222.415000", "110222.418000", "110222.421000", "110222.424000", "110222.427000", "110222.431000", "110222.434000", "110222.437000", "110222.440000", "110222.443000", "110222.446000", "110222.453000", "110222.456000", "110321.924000", "110321.928000", "110321.931000", "110321.934000", "110321.937000", "110321.940000", "110321.943000", "110321.947000", "110321.950000", "110321.953000", "110321.956000", "110321.959000", "110321.962000", "110321.966000", "110321.969000", "110321.972000", "110321.975000", "110321.978000", "110321.981000", "110321.984000", "110321.988000", "110321.991000", "110321.994000", "110321.997000", "110322.001000", "110322.004000", "110322.008000", "110422.018000", "110422.022000", "110422.025000", "110422.028000", "110422.032000", "110422.035000", "110422.038000", "110422.041000", "110422.044000", "110422.048000", "110422.051000", "110422.054000", "110422.057000", "110422.060000", "110422.063000", "110422.066000", "110422.069000", "110422.073000", "110422.076000", "110422.079000", "110422.082000", "110422.085000", "110422.088000", "110422.092000", "110422.095000", "110422.098000", "110422.101000", "110521.913000", "110521.916000", "110521.919000", "110521.922000", "110521.926000", "110521.929000", "110521.932000", "110521.935000", "110521.938000", "110521.942000", "110521.945000", "110521.948000", "110521.951000", "110521.954000", "110521.957000", "110521.961000", "110521.964000", "110521.967000", "110521.970000", "110521.973000", "110521.976000", "110521.980000", "110521.983000", "110521.986000", "110521.989000", "110521.992000", "110528.570000", "110528.578000", "110528.581000"],
      "InstanceCreationTime": ["110222.379000", "110222.382000", "110222.386000", "110222.389000", "110222.392000", "110222.395000", "110222.398000", "110222.402000", "110222.405000", "110222.408000", "110222.411000", "110222.415000", "110222.418000", "110222.421000", "110222.424000", "110222.427000", "110222.431000", "110222.434000", "110222.437000", "110222.440000", "110222.443000", "110222.446000", "110222.453000", "110222.456000", "110321.924000", "110321.928000", "110321.931000", "110321.934000", "110321.937000", "110321.940000", "110321.943000", "110321.947000", "110321.950000", "110321.953000", "110321.956000", "110321.959000", "110321.962000", "110321.966000", "110321.969000", "110321.972000", "110321.975000", "110321.978000", "110321.981000", "110321.984000", "110321.988000", "110321.991000", "110321.994000", "110321.997000", "110322.001000", "110322.004000", "110322.008000", "110422.018000", "110422.022000", "110422.025000", "110422.028000", "110422.032000", "110422.035000", "110422.038000", "110422.041000", "110422.044000", "110422.048000", "110422.051000", "110422.054000", "110422.057000", "110422.060000", "110422.063000", "110422.066000", "110422.069000", "110422.073000", "110422.076000", "110422.079000", "110422.082000", "110422.085000", "110422.088000", "110422.092000", "110422.095000", "110422.098000", "110422.101000", "110521.913000", "110521.916000", "110521.919000", "110521.922000", "110521.926000", "110521.929000", "110521.932000", "110521.935000", "110521.938000", "110521.942000", "110521.945000", "110521.948000", "110521.951000", "110521.954000", "110521.957000", "110521.961000", "110521.964000", "110521.967000", "110521.970000", "110521.973000", "110521.976000", "110521.980000", "110521.983000", "110521.986000", "110521.989000", "110521.992000", "110528.570000", "110528.578000", "110528.581000"],
      "InstanceNumber": [1, 2, 3, 4, 5, 6, 7, 8, 9, 10, 11, 12, 13, 14, 15, 16, 17, 18, 19, 20, 21, 22, 23, 24, 25, 26, 27, 28, 29, 30, 31, 32, 33, 34, 35, 36, 37, 38, 39, 40, 41, 42, 43, 44, 45, 46, 47, 48, 49, 50, 51, 52, 53, 54, 55, 56, 57, 58, 59, 60, 61, 62, 63, 64, 65, 66, 67, 68, 69, 70, 71, 72, 73, 74, 75, 76, 77, 78, 79, 80, 81, 82, 83, 84, 85, 86, 87, 88, 89, 90, 91, 92, 93, 94, 95, 96, 97, 98, 99, 100, 101, 102, 103, 104, 105, 106, 107],
      "SequenceName": [
 "ep_b0",
 "ep_b0",
 "ep_b1000#2",
 "ep_b2000#3",
 "ep_b1000#4",
 "ep_b1000#5",
 "ep_b300#6",
 "ep_b2000#7",
 "ep_b2000#8",
 "ep_b2000#9",
 "ep_b1000#10",
 "ep_b300#11",
 "ep_b2000#12",
 "ep_b2000#13",
 "ep_b2000#14",
 "ep_b2000#15",
 "ep_b1000#16",
 "ep_b2000#17",
 "ep_b2000#18",
 "ep_b2000#19",
 "ep_b2000#20",
 "ep_b0",
 "ep_b1000#22",
 "ep_b2000#23",
 "ep_b1000#24",
 "ep_b1000#25",
 "ep_b2000#26",
 "ep_b2000#27",
 "ep_b2000#28",
 "ep_b2000#29",
 "ep_b300#30",
 "ep_b2000#31",
 "ep_b1000#32",
 "ep_b2000#33",
 "ep_b2000#34",
 "ep_b300#35",
 "ep_b2000#36",
 "ep_b2000#37",
 "ep_b1000#38",
 "ep_b2000#39",
 "ep_b2000#40",
 "ep_b0",
 "ep_b2000#42",
 "ep_b2000#43",
 "ep_b2000#44",
 "ep_b300#45",
 "ep_b1000#46",
 "ep_b2000#47",
 "ep_b2000#48",
 "ep_b1000#49",
 "ep_b2000#50",
 "ep_b1000#51",
 "ep_b1000#52",
 "ep_b2000#53",
 "ep_b300#54",
 "ep_b1000#55",
 "ep_b2000#56",
 "ep_b1000#57",
 "ep_b2000#58",
 "ep_b2000#59",
 "ep_b1000#60",
 "ep_b0",
 "ep_b1000#62",
 "ep_b2000#63",
 "ep_b2000#64",
 "ep_b2000#65",
 "ep_b2000#66",
 "ep_b300#67",
 "ep_b1000#68",
 "ep_b1000#69",
 "ep_b2000#70",
 "ep_b2000#71",
 "ep_b2000#72",
 "ep_b2000#73",
 "ep_b1000#74",
 "ep_b2000#75",
 "ep_b2000#76",
 "ep_b2000#77",
 "ep_b1000#78",
 "ep_b1000#79",
 "ep_b2000#80",
 "ep_b0",
 "ep_b1000#82",
 "ep_b2000#83",
 "ep_b2000#84",
 "ep_b1000#85",
 "ep_b1000#86",
 "ep_b2000#87",
 "ep_b1000#88",
 "ep_b2000#89",
 "ep_b2000#90",
 "ep_b2000#91",
 "ep_b1000#92",
 "ep_b2000#93",
 "ep_b2000#94",
 "ep_b2000#95",
 "ep_b300#96",
 "ep_b1000#97",
 "ep_b2000#98",
 "ep_b1000#99",
 "ep_b1000#100",
 "ep_b0",
 "ep_b2000#102",
 "ep_b2000#103",
 "ep_b1000#104",
 "ep_b2000#105",
 "ep_b2000#106"
],
      "TriggerTime": [12837.5, 15080.0, 17322.5, 19565.0, 21810.0, 24052.5, 26295.0, 28537.5, 30780.0, 33025.0, 35267.5, 37510.0, 39752.5, 41995.0, 44240.0, 46482.5, 48725.0, 50967.5, 53210.0, 55455.0, 57697.5, 59940.0, 62182.5, 64425.0, 66670.0, 68912.5, 71155.0, 73397.5, 75640.0, 77885.0, 80127.5, 82370.0, 84612.5, 86855.0, 89100.0, 91342.5, 93585.0, 95827.5, 98070.0, 100315.0, 102557.5, 104800.0, 107042.5, 109285.0, 111530.0, 113772.5, 116015.0, 118257.5, 120500.0, 122745.0, 124987.5, 127230.0, 129472.5, 131715.0, 133960.0, 136202.5, 138445.0, 140687.5, 142930.0, 145175.0, 147417.5, 149660.0, 151902.5, 154145.0, 156390.0, 158632.5, 160875.0, 163117.5, 165360.0, 167605.0, 169847.5, 172090.0, 174332.5, 176575.0, 178820.0, 181062.5, 183305.0, 185547.5, 187790.0, 190035.0, 192277.5, 194520.0, 196762.5, 199005.0, 201250.0, 203492.5, 205735.0, 207977.5, 210220.0, 212465.0, 214707.5, 216950.0, 219192.5, 221435.0, 223680.0, 225922.5, 228165.0, 230407.5, 232650.0, 234895.0, 237137.5, 239380.0, 241622.5, 243865.0, 246110.0, 248352.5, 250595.0],
      "WindowCenter": [4770.0, 4768.0, 4762.0, 4404.0, 4942.0, 5042.0, 4948.0, 4844.0, 5214.0, 4978.0, 5052.0, 4700.0, 5154.0, 5276.0, 5246.0, 5154.0, 5122.0, 5092.0, 4732.0, 5300.0, 4814.0, 4732.0, 5228.0, 4742.0, 5012.0, 5072.0, 5334.0, 5130.0, 5118.0, 4928.0, 4856.0, 4892.0, 4976.0, 5332.0, 5032.0, 4790.0, 5056.0, 4944.0, 5290.0, 5058.0, 5270.0, 4762.0, 5106.0, 4884.0, 5132.0, 4834.0, 4588.0, 5090.0, 5004.0, 4896.0, 5096.0, 5192.0, 4848.0, 5208.0, 4940.0, 4994.0, 5304.0, 4588.0, 5066.0, 5042.0, 5132.0, 4830.0, 5028.0, 5254.0, 4620.0, 4996.0, 5006.0, 4896.0, 4840.0, 5298.0, 5276.0, 4872.0, 5036.0, 4574.0, 5126.0, 4898.0, 4460.0, 5252.0, 4796.0, 4942.0, 5044.0, 4862.0, 5138.0, 4976.0, 5166.0, 4902.0, 4874.0, 5210.0, 5276.0, 4512.0, 4594.0, 5212.0, 4828.0, 4868.0, 5012.0, 5244.0, 4798.0, 4722.0, 4944.0, 5166.0, 5000.0, 4826.0, 5006.0, 4832.0, 4938.0, 4904.0, 4698.0],
      "WindowWidth": [18354.0, 18358.0, 18412.0, 18118.0, 18574.0, 18714.0, 18512.0, 18588.0, 18984.0, 18684.0, 18768.0, 18314.0, 19118.0, 19368.0, 19208.0, 18878.0, 18716.0, 18748.0, 18484.0, 19424.0, 18674.0, 18328.0, 19020.0, 18576.0, 18704.0, 18678.0, 19214.0, 18916.0, 19250.0, 18750.0, 18418.0, 18598.0, 18802.0, 19218.0, 18816.0, 18442.0, 19264.0, 18752.0, 19024.0, 18832.0, 19246.0, 18370.0, 18914.0, 18592.0, 19340.0, 18508.0, 18272.0, 18926.0, 18680.0, 18672.0, 19346.0, 19004.0, 18486.0, 19098.0, 18586.0, 18612.0, 19278.0, 18288.0, 19052.0, 18738.0, 18730.0, 18408.0, 18620.0, 19400.0, 18310.0, 19220.0, 18882.0, 18596.0, 18526.0, 19120.0, 19048.0, 18702.0, 18904.0, 18268.0, 18958.0, 18570.0, 18234.0, 19094.0, 18556.0, 18560.0, 18848.0, 18426.0, 19012.0, 19078.0, 19420.0, 18578.0, 18526.0, 19236.0, 19074.0, 18350.0, 18326.0, 19052.0, 18522.0, 19040.0, 18702.0, 19392.0, 18426.0, 18384.0, 18636.0, 18832.0, 18642.0, 18408.0, 18808.0, 19044.0, 18524.0, 18658.0, 18454.0]
    },
    "slices": {}
  }
}