{
  "AcquisitionMatrixPE": 110,
  "AcquisitionNumber": 1,
  "AcquisitionTime": "11:05:47.210000",
  "BandwidthPerPixelPhaseEncode": 12.987,
  "BaseResolution": 110,
  "BodyPartExamined": "BRAIN",
  "CoilCombinationMethod": "Sum of Squares",
  "ConsistencyInfo": "N4_VE11C_LATEST_20160120",
  "ConversionSoftware": "dcm2niix",
  "ConversionSoftwareVersion": "v1.0.20220505",
  "DerivedVendorReportedEchoSpacing": 0.000700001,
  "DeviceSerialNumber": "167006",
  "DiffusionScheme": "Monopolar",
  "DwellTime": 2.7e-06,
  "EchoTime": 0.0768,
  "EchoTrainLength": 83,
  "EffectiveEchoSpacing": 0.000700001,
  "FlipAngle": 78,
  "HeudiconvVersion": "0.5.3.post811+g6206e14",
  "ImageComments": "Unaliased MB3/PE3/LB SENSE1+",
  "ImageOrientationPatientDICOM": [1, 0, 0, 0, 0.881303, -0.472551],
  "ImageOrientationText": "Tra>Cor(-28.2)",
  "ImageType": [
    "ORIGINAL",
    "PRIMARY",
    "DIFFUSION",
    "NONE",
    "MB",
    "ND",
    "MOSAIC"
],
  "ImagingFrequency": 123.259,
  "InPlanePhaseEncodingDirectionDICOM": "COL",
  "InstitutionAddress": "Chemin Queen-Mary 4565,Montreal,District,CA,H3W 1W5",
  "InstitutionName": "IUGM",
  "InstitutionalDepartmentName": "Department",
  "MRAcquisitionType": "2D",
  "MagneticFieldStrength": 3,
  "Manufacturer": "Siemens",
  "ManufacturersModelName": "Prisma_fit",
  "MatrixCoilMode": "SENSE",
  "Modality": "MR",
  "MultibandAccelerationFactor": 3,
  "PartialFourier": 0.75,
  "PatientPosition": "HFS",
  "PercentPhaseFOV": 100,
  "PercentSampling": 100,
  "PhaseEncodingDirection": "j",
  "PhaseEncodingSteps": 83,
  "PhaseResolution": 1,
  "PixelBandwidth": 1685,
  "ProcedureStepDescription": "anat^generic",
  "ProtocolName": "dMRI_dir106_PA_test_cmrr",
  "PulseSequenceDetails": "%CustomerSeq%\\cmrr_mbep2d_diff",
  "ReceiveCoilActiveElements": "HC1-6",
  "ReceiveCoilName": "HeadNeck_64",
  "ReconMatrixPE": 110,
  "RepetitionTime": 2.243,
  "SAR": 0.147824,
  "ScanOptions": "PFP\\EXT",
  "ScanningSequence": "EP",
  "SequenceName": "ep_b0",
  "SequenceVariant": "SK\\SS",
  "SeriesDescription": "dMRI_dir106_PA_test_cmrr",
  "SeriesNumber": 15,
  "ShimSetting": [596, -7253, -8872, 294, 10, -180, 2, 87],
  "SliceThickness": 2,
  "SliceTiming": [0, 1.1675, 0.115, 1.285, 0.2325, 1.4025, 0.35, 1.52, 0.4675, 1.6375, 0.585, 1.7525, 0.7, 1.87, 0.8175, 1.9875, 0.935, 2.105, 1.0525, 0, 1.1675, 0.115, 1.285, 0.2325, 1.4025, 0.35, 1.52, 0.4675, 1.6375, 0.585, 1.7525, 0.7, 1.87, 0.8175, 1.9875, 0.935, 2.105, 1.0525, 0, 1.1675, 0.115, 1.285, 0.2325, 1.4025, 0.35, 1.52, 0.4675, 1.6375, 0.585, 1.7525, 0.7, 1.87, 0.8175, 1.9875, 0.935, 2.105, 1.0525],
  "SoftwareVersions": "syngo MR E11",
  "SpacingBetweenSlices": 2,
  "StationName": "MRC35049",
  "TotalReadoutTime": 0.0763001,
  "TxRefAmp": 251.969,
  "WipMemBlock": "7fad7d5f-8d30-4b1a-911d-0682578b4319||Sequence: R017 ve11c/master r/75a17815+; Jun 28 2022 16:41:33 by eja",
  "dcmmeta_affine": [
    [-2.0, 0.0, 0.0, 113.11132049560547],
    [0.0, 1.7626068592071533, -0.9451016187667847, -73.2052993774414],
    [0.0, 0.9451016187667847, 1.7626068592071533, -90.09336853027344],
    [0.0, 0.0, 0.0, 1.0]
],
  "dcmmeta_reorient_transform": [
    [0.0, -1.0, 0.0, 109.0],
    [1.0, 0.0, 0.0, 0.0],
    [0.0, 0.0, 1.0, 0.0],
    [0.0, 0.0, 0.0, 1.0]
],
  "dcmmeta_shape": [110, 110, 57, 107],
  "dcmmeta_slice_dim": 2,
  "dcmmeta_version": 0.6,
  "global": {
    "const": {
      "AcquisitionMatrix": [110, 0, 0, 110],
      "AngioFlag": "N",
      "BitsAllocated": 16,
      "BitsStored": 16,
      "BodyPartExamined": "BRAIN",
      "CardiacNumberOfImages": 1,
      "Columns": 880,
      "EchoNumbers": 1,
      "EchoTime": 76.8,
      "EchoTrainLength": 83,
      "FlipAngle": 78.0,
      "HighBit": 15,
      "ImageOrientationPatient": [1.0, 0.0, 0.0, 0.0, 0.88130343505599, -0.4725507965907],
      "ImagePositionPatient": [-883.1113216877, -797.5224962532, 376.78682059821],
      "ImageType": [
        "ORIGINAL",
        "PRIMARY",
        "DIFFUSION",
        "NONE",
        "MB",
        "ND",
        "MOSAIC"
],
      "ImagedNucleus": "1H",
      "ImagingFrequency": 123.258913,
      "InPlanePhaseEncodingDirection": "COL",
      "MRAcquisitionType": "2D",
      "MagneticFieldStrength": 3.0,
      "Manufacturer": "SIEMENS",
      "ManufacturerModelName": "Prisma_fit",
      "Modality": "MR",
      "NominalInterval": 0,
      "NumberOfAverages": 1.0,
      "NumberOfPhaseEncodingSteps": 83,
      "PercentPhaseFieldOfView": 100.0,
      "PercentSampling": 100.0,
      "PerformedProcedureStepStartTime": "103736.373000",
      "PhotometricInterpretation": "MONOCHROME2",
      "PixelBandwidth": 1685.0,
      "PixelRepresentation": 0,
      "PixelSpacing": [2.0, 2.0],
      "ProtocolName": "dMRI_dir106_PA_test_cmrr",
      "RepetitionTime": 2243.0,
      "Rows": 880,
      "SAR": 0.14782402364076,
      "SamplesPerPixel": 1,
      "ScanOptions": [
        "PFP",
        "EXT"
],
      "ScanningSequence": "EP",
      "SequenceVariant": [
        "SK",
        "SS"
],
      "SeriesDescription": "dMRI_dir106_PA_test_cmrr",
      "SeriesNumber": 15,
      "SeriesTime": "110621.880000",
      "SliceLocation": -44.806371626431,
      "SliceThickness": 2.0,
      "SmallestImagePixelValue": 0,
      "SoftwareVersions": "syngo MR E11",
      "SpacingBetweenSlices": 1.9999999922595,
      "SpecificCharacterSet": "ISO_IR 100",
      "StudyID": "1",
      "StudyTime": "103736.307000",
      "TransmitCoilName": "Body",
      "VariableFlipAngleFlag": "N",
      "WindowCenterWidthExplanation": "Algo1",
      "dBdt": 0.0},
    "slices": {}
  },
  "time": {
    "samples": {
      "AcquisitionNumber": [1, 2, 3, 4, 5, 6, 7, 8, 9, 10, 11, 12, 13, 14, 15, 16, 17, 18, 19, 20, 21, 22, 23, 24, 25, 26, 27, 28, 29, 30, 31, 32, 33, 34, 35, 36, 37, 38, 39, 40, 41, 42, 43, 44, 45, 46, 47, 48, 49, 50, 51, 52, 53, 54, 55, 56, 57, 58, 59, 60, 61, 62, 63, 64, 65, 66, 67, 68, 69, 70, 71, 72, 73, 74, 75, 76, 77, 78, 79, 80, 81, 82, 83, 84, 85, 86, 87, 88, 89, 90, 91, 92, 93, 94, 95, 96, 97, 98, 99, 100, 101, 102, 103, 104, 105, 106, 107],
      "AcquisitionTime": ["110547.210000", "110549.452500", "110551.695000", "110553.937500", "110556.180000", "110558.425000", "110600.667500", "110602.910000", "110605.152500", "110607.395000", "110609.640000", "110611.882500", "110614.125000", "110616.367500", "110618.610000", "110620.855000", "110623.097500", "110625.340000", "110627.582500", "110629.825000", "110632.070000", "110634.312500", "110636.555000", "110638.797500", "110641.040000", "110643.285000", "110645.527500", "110647.770000", "110650.012500", "110652.255000", "110654.500000", "110656.742500", "110658.985000", "110701.227500", "110703.470000", "110705.715000", "110707.957500", "110710.200000", "110712.442500", "110714.685000", "110716.930000", "110719.172500", "110721.415000", "110723.657500", "110725.900000", "110728.145000", "110730.387500", "110732.630000", "110734.872500", "110737.115000", "110739.360000", "110741.602500", "110743.845000", "110746.087500", "110748.330000", "110750.575000", "110752.817500", "110755.060000", "110757.302500", "110759.545000", "110801.790000", "110804.032500", "110806.275000", "110808.517500", "110810.760000", "110813.005000", "110815.247500", "110817.490000", "110819.732500", "110821.975000", "110824.220000", "110826.462500", "110828.705000", "110830.947500", "110833.190000", "110835.435000", "110837.677500", "110839.920000", "110842.162500", "110844.405000", "110846.650000", "110848.892500", "110851.135000", "110853.377500", "110855.620000", "110857.865000", "110900.107500", "110902.350000", "110904.592500", "110906.835000", "110909.080000", "110911.322500", "110913.565000", "110915.807500", "110918.050000", "110920.295000", "110922.537500", "110924.780000", "110927.022500", "110929.265000", "110931.510000", "110933.752500", "110935.995000", "110938.237500", "110940.480000", "110942.725000", "110944.967500"],
      "ContentTime": ["110621.882000", "110621.886000", "110621.889000", "110621.892000", "110621.902000", "110621.905000", "110621.909000", "110621.912000", "110621.915000", "110621.918000", "110621.921000", "110621.924000", "110621.927000", "110621.930000", "110621.933000", "110721.845000", "110721.848000", "110721.852000", "110721.855000", "110721.858000", "110721.861000", "110721.864000", "110721.867000", "110721.885000", "110721.888000", "110721.891000", "110721.897000", "110721.900000", "110721.903000", "110721.906000", "110721.910000", "110721.913000", "110721.916000", "110721.919000", "110721.922000", "110721.925000", "110721.929000", "110721.932000", "110721.935000", "110721.938000", "110721.941000", "110721.944000", "110821.845000", "110821.848000", "110821.851000", "110821.855000", "110821.858000", "110821.861000", "110821.864000", "110821.867000", "110821.870000", "110821.873000", "110821.876000", "110821.880000", "110821.883000", "110821.886000", "110821.889000", "110821.892000", "110821.895000", "110821.898000", "110821.901000", "110821.904000", "110821.908000", "110821.911000", "110821.922000", "110821.925000", "110821.928000", "110821.931000", "110921.845000", "110921.848000", "110921.852000", "110921.855000", "110921.858000", "110921.861000", "110921.864000", "110921.877000", "110921.880000", "110921.883000", "110921.887000", "110921.890000", "110921.893000", "110921.896000", "110921.899000", "110921.902000", "110921.905000", "110921.908000", "110921.911000", "110921.914000", "110921.917000", "110921.920000", "110921.924000", "110921.927000", "110921.930000", "110921.933000", "110921.936000", "110949.503000", "110949.506000", "110949.509000", "110949.512000", "110949.515000", "110949.529000", "110949.532000", "110949.535000", "110949.539000", "110949.551000", "110949.554000", "110949.557000"],
      "InstanceCreationTime": ["110621.882000", "110621.886000", "110621.889000", "110621.892000", "110621.902000", "110621.905000", "110621.909000", "110621.912000", "110621.915000", "110621.918000", "110621.921000", "110621.924000", "110621.927000", "110621.930000", "110621.933000", "110721.845000", "110721.848000", "110721.852000", "110721.855000", "110721.858000", "110721.861000", "110721.864000", "110721.867000", "110721.885000", "110721.888000", "110721.891000", "110721.897000", "110721.900000", "110721.903000", "110721.906000", "110721.910000", "110721.913000", "110721.916000", "110721.919000", "110721.922000", "110721.925000", "110721.929000", "110721.932000", "110721.935000", "110721.938000", "110721.941000", "110721.944000", "110821.845000", "110821.848000", "110821.851000", "110821.855000", "110821.858000", "110821.861000", "110821.864000", "110821.867000", "110821.870000", "110821.873000", "110821.876000", "110821.880000", "110821.883000", "110821.886000", "110821.889000", "110821.892000", "110821.895000", "110821.898000", "110821.901000", "110821.904000", "110821.908000", "110821.911000", "110821.922000", "110821.925000", "110821.928000", "110821.931000", "110921.845000", "110921.848000", "110921.852000", "110921.855000", "110921.858000", "110921.861000", "110921.864000", "110921.877000", "110921.880000", "110921.883000", "110921.887000", "110921.890000", "110921.893000", "110921.896000", "110921.899000", "110921.902000", "110921.905000", "110921.908000", "110921.911000", "110921.914000", "110921.917000", "110921.920000", "110921.924000", "110921.927000", "110921.930000", "110921.933000", "110921.936000", "110949.503000", "110949.506000", "110949.509000", "110949.512000", "110949.515000", "110949.529000", "110949.532000", "110949.535000", "110949.539000", "110949.551000", "110949.554000", "110949.557000"],
      "InstanceNumber": [1, 2, 3, 4, 5, 6, 7, 8, 9, 10, 11, 12, 13, 14, 15, 16, 17, 18, 19, 20, 21, 22, 23, 24, 25, 26, 27, 28, 29, 30, 31, 32, 33, 34, 35, 36, 37, 38, 39, 40, 41, 42, 43, 44, 45, 46, 47, 48, 49, 50, 51, 52, 53, 54, 55, 56, 57, 58, 59, 60, 61, 62, 63, 64, 65, 66, 67, 68, 69, 70, 71, 72, 73, 74, 75, 76, 77, 78, 79, 80, 81, 82, 83, 84, 85, 86, 87, 88, 89, 90, 91, 92, 93, 94, 95, 96, 97, 98, 99, 100, 101, 102, 103, 104, 105, 106, 107],
      "LargestImagePixelValue": [55254, 57508, 24172, 13311, 23504, 23383, 39480, 11657, 12998, 12449, 24618, 42634, 11683, 11552, 13033, 12509, 24620, 12697, 12727, 13314, 11980, 55239, 21342, 11868, 24370, 23985, 12593, 11796, 12407, 10983, 41959, 12548, 24271, 12798, 12769, 40609, 12988, 11372, 21728, 12151, 12027, 57179, 12849, 12058, 13495, 39175, 22948, 11747, 11747, 24807, 12902, 24495, 23579, 12398, 41681, 21969, 12677, 21165, 12439, 11376, 21939, 56778, 22320, 12033, 11866, 13222, 12751, 41448, 23903, 23551, 11691, 11823, 12084, 13495, 23517, 11823, 13454, 12604, 24092, 22056, 12478, 55936, 22438, 13095, 12126, 22136, 24148, 11980, 23239, 12653, 12946, 12115, 25822, 13588, 12419, 13031, 41717, 22475, 11915, 22901, 23695, 53825, 12151, 12746, 22760, 13107, 11734],
      "SequenceName": [
 "ep_b0",
 "ep_b0",
 "ep_b1000#2",
 "ep_b2000#3",
 "ep_b1000#4",
 "ep_b1000#5",
 "ep_b300#6",
 "ep_b2000#7",
 "ep_b2000#8",
 "ep_b2000#9",
 "ep_b1000#10",
 "ep_b300#11",
 "ep_b2000#12",
 "ep_b2000#13",
 "ep_b2000#14",
 "ep_b2000#15",
 "ep_b1000#16",
 "ep_b2000#17",
 "ep_b2000#18",
 "ep_b2000#19",
 "ep_b2000#20",
 "ep_b0",
 "ep_b1000#22",
 "ep_b2000#23",
 "ep_b1000#24",
 "ep_b1000#25",
 "ep_b2000#26",
 "ep_b2000#27",
 "ep_b2000#28",
 "ep_b2000#29",
 "ep_b300#30",
 "ep_b2000#31",
 "ep_b1000#32",
 "ep_b2000#33",
 "ep_b2000#34",
 "ep_b300#35",
 "ep_b2000#36",
 "ep_b2000#37",
 "ep_b1000#38",
 "ep_b2000#39",
 "ep_b2000#40",
 "ep_b0",
 "ep_b2000#42",
 "ep_b2000#43",
 "ep_b2000#44",
 "ep_b300#45",
 "ep_b1000#46",
 "ep_b2000#47",
 "ep_b2000#48",
 "ep_b1000#49",
 "ep_b2000#50",
 "ep_b1000#51",
 "ep_b1000#52",
 "ep_b2000#53",
 "ep_b300#54",
 "ep_b1000#55",
 "ep_b2000#56",
 "ep_b1000#57",
 "ep_b2000#58",
 "ep_b2000#59",
 "ep_b1000#60",
 "ep_b0",
 "ep_b1000#62",
 "ep_b2000#63",
 "ep_b2000#64",
 "ep_b2000#65",
 "ep_b2000#66",
 "ep_b300#67",
 "ep_b1000#68",
 "ep_b1000#69",
 "ep_b2000#70",
 "ep_b2000#71",
 "ep_b2000#72",
 "ep_b2000#73",
 "ep_b1000#74",
 "ep_b2000#75",
 "ep_b2000#76",
 "ep_b2000#77",
 "ep_b1000#78",
 "ep_b1000#79",
 "ep_b2000#80",
 "ep_b0",
 "ep_b1000#82",
 "ep_b2000#83",
 "ep_b2000#84",
 "ep_b1000#85",
 "ep_b1000#86",
 "ep_b2000#87",
 "ep_b1000#88",
 "ep_b2000#89",
 "ep_b2000#90",
 "ep_b2000#91",
 "ep_b1000#92",
 "ep_b2000#93",
 "ep_b2000#94",
 "ep_b2000#95",
 "ep_b300#96",
 "ep_b1000#97",
 "ep_b2000#98",
 "ep_b1000#99",
 "ep_b1000#100",
 "ep_b0",
 "ep_b2000#102",
 "ep_b2000#103",
 "ep_b1000#104",
 "ep_b2000#105",
 "ep_b2000#106"
],
      "TriggerTime": [12835.0, 15080.0, 17322.5, 19565.0, 21807.5, 24050.0, 26295.0, 28537.5, 30780.0, 33022.5, 35265.0, 37510.0, 39752.5, 41995.0, 44237.5, 46480.0, 48725.0, 50967.5, 53210.0, 55452.5, 57695.0, 59940.0, 62182.5, 64425.0, 66667.5, 68910.0, 71155.0, 73397.5, 75640.0, 77882.5, 80125.0, 82370.0, 84612.5, 86855.0, 89097.5, 91340.0, 93585.0, 95827.5, 98070.0, 100312.5, 102555.0, 104800.0, 107042.5, 109285.0, 111527.5, 113770.0, 116015.0, 118257.5, 120500.0, 122742.5, 124985.0, 127230.0, 129472.5, 131715.0, 133957.5, 136200.0, 138445.0, 140687.5, 142930.0, 145172.5, 147415.0, 149660.0, 151902.5, 154145.0, 156387.5, 158630.0, 160875.0, 163117.5, 165360.0, 167602.5, 169845.0, 172090.0, 174332.5, 176575.0, 178817.5, 181060.0, 183305.0, 185547.5, 187790.0, 190032.5, 192275.0, 194520.0, 196762.5, 199005.0, 201247.5, 203490.0, 205735.0, 207977.5, 210220.0, 212462.5, 214705.0, 216950.0, 219192.5, 221435.0, 223677.5, 225920.0, 228165.0, 230407.5, 232650.0, 234892.5, 237135.0, 239380.0, 241622.5, 243865.0, 246107.5, 248350.0, 250595.0],
      "WindowCenter": [7755.0, 7759.0, 3691.0, 2395.0, 3664.0, 3623.0, 5696.0, 2317.0, 2371.0, 2345.0, 3661.0, 5712.0, 2296.0, 2293.0, 2374.0, 2372.0, 3677.0, 2380.0, 2386.0, 2393.0, 2302.0, 7655.0, 3641.0, 2327.0, 3680.0, 3646.0, 2368.0, 2316.0, 2328.0, 2288.0, 5686.0, 2334.0, 3626.0, 2384.0, 2349.0, 5694.0, 2356.0, 2318.0, 3594.0, 2362.0, 2303.0, 7648.0, 2352.0, 2315.0, 2365.0, 5660.0, 3626.0, 2298.0, 2344.0, 3638.0, 2382.0, 3638.0, 3655.0, 2362.0, 5676.0, 3611.0, 2381.0, 3637.0, 2326.0, 2357.0, 3615.0, 7657.0, 3637.0, 2325.0, 2362.0, 2356.0, 2312.0, 5698.0, 3620.0, 3648.0, 2317.0, 2341.0, 2349.0, 2379.0, 3600.0, 2348.0, 2363.0, 2342.0, 3602.0, 3648.0, 2358.0, 7645.0, 3596.0, 2329.0, 2329.0, 3613.0, 3651.0, 2309.0, 3607.0, 2335.0, 2362.0, 2319.0, 3654.0, 2370.0, 2358.0, 2363.0, 5683.0, 3636.0, 2372.0, 3636.0, 3634.0, 7617.0, 2290.0, 2328.0, 3617.0, 2335.0, 2337.0],
      "WindowWidth": [16760.0, 16751.0, 8396.0, 5798.0, 8367.0, 8293.0, 12383.0, 5653.0, 5731.0, 5684.0, 8363.0, 12407.0, 5599.0, 5590.0, 5751.0, 5753.0, 8387.0, 5766.0, 5768.0, 5789.0, 5620.0, 16539.0, 8339.0, 5662.0, 8379.0, 8325.0, 5741.0, 5624.0, 5669.0, 5594.0, 12359.0, 5668.0, 8319.0, 5775.0, 5696.0, 12376.0, 5730.0, 5654.0, 8237.0, 5725.0, 5602.0, 16507.0, 5708.0, 5623.0, 5732.0, 12319.0, 8318.0, 5608.0, 5677.0, 8333.0, 5772.0, 8326.0, 8340.0, 5725.0, 12351.0, 8276.0, 5771.0, 8330.0, 5669.0, 5700.0, 8262.0, 16528.0, 8316.0, 5659.0, 5717.0, 5725.0, 5643.0, 12382.0, 8270.0, 8341.0, 5624.0, 5691.0, 5703.0, 5765.0, 8270.0, 5694.0, 5730.0, 5696.0, 8254.0, 8340.0, 5725.0, 16505.0, 8246.0, 5679.0, 5673.0, 8279.0, 8324.0, 5623.0, 8267.0, 5682.0, 5727.0, 5636.0, 8349.0, 5752.0, 5702.0, 5730.0, 12351.0, 8315.0, 5761.0, 8319.0, 8305.0, 16463.0, 5577.0, 5669.0, 8273.0, 5671.0, 5679.0]
    },
    "slices": {}
  }
}