{
  "AcquisitionMatrixPE": 110,
  "AcquisitionNumber": 1,
  "AcquisitionTime": "16:39:31.272500",
  "BandwidthPerPixelPhaseEncode": 12.987,
  "BaseResolution": 110,
  "BodyPartExamined": "BRAIN",
  "ConsistencyInfo": "N4_VE11C_LATEST_20160120",
  "ConversionSoftware": "dcm2niix",
  "ConversionSoftwareVersion": "v1.0.20190902",
  "DerivedVendorReportedEchoSpacing": 0.000700001,
  "DeviceSerialNumber": "167006",
  "DiffusionScheme": "Monopolar",
  "DwellTime": 2.7e-06,
  "EchoTime": 0.0816,
  "EchoTrainLength": 83,
  "EffectiveEchoSpacing": 0.000700001,
  "FlipAngle": 78,
  "ImageComments": "Unaliased_MB3_PE3_LB_SENSE1",
  "ImageOrientationPatientDICOM": [1, 0, 0, 0, 0.942057, -0.335452],
  "ImageType": [
    "ORIGINAL",
    "PRIMARY",
    "DIFFUSION",
    "NONE",
    "MB",
    "ND",
    "MOSAIC"
],
  "ImagingFrequency": 123.259,
  "InPlanePhaseEncodingDirectionDICOM": "COL",
  "InstitutionAddress": "Chemin_Queen-Mary_4565_Montreal_District_CA_H3W_1W5",
  "InstitutionName": "IUGM",
  "InstitutionalDepartmentName": "Department",
  "MRAcquisitionType": "2D",
  "MagneticFieldStrength": 3,
  "Manufacturer": "Siemens",
  "ManufacturersModelName": "Prisma_fit",
  "Modality": "MR",
  "MultibandAccelerationFactor": 3,
  "PartialFourier": 0.75,
  "PatientPosition": "HFS",
  "PercentPhaseFOV": 100,
  "PhaseEncodingDirection": "j-",
  "PhaseEncodingSteps": 83,
  "PhaseResolution": 1,
  "PixelBandwidth": 1685,
  "ProcedureStepDescription": "neuromod_generic",
  "ProtocolName": "dMRI_dir98_AP_test_cmrr",
  "PulseSequenceDetails": "%CustomerSeq%_cmrr_mbep2d_diff",
  "ReceiveCoilActiveElements": "HC1-6",
  "ReceiveCoilName": "HeadNeck_64",
  "ReconMatrixPE": 110,
  "RepetitionTime": 2.334,
  "SAR": 0.143571,
  "ScanOptions": "PFP_EXT",
  "ScanningSequence": "EP",
  "SequenceName": "ep_b5#1",
  "SequenceVariant": "SK_SS",
  "SeriesDescription": "dMRI_dir98_AP_test_cmrr",
  "SeriesNumber": 7,
  "ShimSetting": [624, -7202, -8841, 629, 70, 22, 29, -33],
  "SliceThickness": 2,
  "SliceTiming": [0, 1.2175, 0.1225, 1.34, 0.2425, 1.46, 0.365, 1.5825, 0.4875, 1.705, 0.6075, 1.825, 0.73, 1.9475, 0.8525, 2.07, 0.975, 2.1925, 1.095, 0, 1.2175, 0.1225, 1.34, 0.2425, 1.46, 0.365, 1.5825, 0.4875, 1.705, 0.6075, 1.825, 0.73, 1.9475, 0.8525, 2.07, 0.975, 2.1925, 1.095, 0, 1.2175, 0.1225, 1.34, 0.2425, 1.46, 0.365, 1.5825, 0.4875, 1.705, 0.6075, 1.825, 0.73, 1.9475, 0.8525, 2.07, 0.975, 2.1925, 1.095],
  "SoftwareVersions": "syngo_MR_E11",
  "SpacingBetweenSlices": 2,
  "StationName": "MRC35049",
  "TotalReadoutTime": 0.0763001,
  "TxRefAmp": 250.791,
  "WipMemBlock": "74baba4c-30c8-41ec-8ccd-939ad18acf24||Sequence: R016 ve11c/master r/e634e98; Dec 19 2017 11:11:25 by eja",
  "dcmmeta_affine": [
    [-2.0, 0.0, 0.0, 111.8072280883789],
    [0.0, 1.8841148614883423, -0.6709031462669373, -76.4405517578125],
    [0.0, 0.6709031462669373, 1.8841148614883423, -66.93142700195312],
    [0.0, 0.0, 0.0, 1.0]
],
  "dcmmeta_reorient_transform": [
    [0.0, -1.0, 0.0, 109.0],
    [1.0, 0.0, 0.0, 0.0],
    [0.0, 0.0, 1.0, 0.0],
    [0.0, 0.0, 0.0, 1.0]
],
  "dcmmeta_shape": [110, 110, 57, 99],
  "dcmmeta_slice_dim": 2,
  "dcmmeta_version": 0.6,
  "global": {
    "const": {
      "AcquisitionMatrix": [110, 0, 0, 110],
      "AngioFlag": "N",
      "BitsAllocated": 16,
      "BitsStored": 16,
      "BodyPartExamined": "BRAIN",
      "CardiacNumberOfImages": 1,
      "Columns": 880,
      "EchoNumbers": 1,
      "EchoTime": 81.6,
      "EchoTrainLength": 83,
      "FlipAngle": 78.0,
      "HighBit": 15,
      "ImageOrientationPatient": [1.0, 0.0, 0.0, 0.0, 0.94205745265343, -0.3354515701262],
      "ImagePositionPatient": [-881.80722892284, -854.31221124334, 264.49472591883],
      "ImageType": [
        "ORIGINAL",
        "PRIMARY",
        "DIFFUSION",
        "NONE",
        "MB",
        "ND",
        "MOSAIC"
],
      "ImagedNucleus": "1H",
      "ImagingFrequency": 123.259464,
      "InPlanePhaseEncodingDirection": "COL",
      "MRAcquisitionType": "2D",
      "MagneticFieldStrength": 3.0,
      "Manufacturer": "SIEMENS",
      "ManufacturerModelName": "Prisma_fit",
      "Modality": "MR",
      "NominalInterval": 0,
      "NumberOfAverages": 1.0,
      "NumberOfPhaseEncodingSteps": 83,
      "PercentPhaseFieldOfView": 100.0,
      "PercentSampling": 100.0,
      "PerformedProcedureStepStartTime": "162329.867000",
      "PhotometricInterpretation": "MONOCHROME2",
      "PixelBandwidth": 1685.0,
      "PixelRepresentation": 0,
      "PixelSpacing": [2.0, 2.0],
      "ProtocolName": "dMRI_dir98_AP_test_cmrr",
      "RepetitionTime": 2334.0,
      "Rows": 880,
      "SAR": 0.14357112920808,
      "SamplesPerPixel": 1,
      "ScanOptions": [
        "PFP",
        "EXT"
],
      "ScanningSequence": "EP",
      "SequenceVariant": [
        "SK",
        "SS"
],
      "SeriesDescription": "dMRI_dir98_AP_test_cmrr",
      "SeriesNumber": 7,
      "SeriesTime": "164035.578000",
      "SliceLocation": -37.411144900215,
      "SliceThickness": 2.0,
      "SmallestImagePixelValue": 0,
      "SoftwareVersions": "syngo MR E11",
      "SpacingBetweenSlices": 1.9999999796375,
      "SpecificCharacterSet": "ISO_IR 100",
      "StudyID": "1",
      "StudyTime": "162329.731000",
      "TransmitCoilName": "Body",
      "VariableFlipAngleFlag": "N",
      "WindowCenterWidthExplanation": "Algo1",
      "dBdt": 0.0},
    "slices": {}
  },
  "time": {
    "samples": {
      "AcquisitionNumber": [1, 2, 3, 4, 5, 6, 7, 8, 9, 10, 11, 12, 13, 14, 15, 16, 17, 18, 19, 20, 21, 22, 23, 24, 25, 26, 27, 28, 29, 30, 31, 32, 33, 34, 35, 36, 37, 38, 39, 40, 41, 42, 43, 44, 45, 46, 47, 48, 49, 50, 51, 52, 53, 54, 55, 56, 57, 58, 59, 60, 61, 62, 63, 64, 65, 66, 67, 68, 69, 70, 71, 72, 73, 74, 75, 76, 77, 78, 79, 80, 81, 82, 83, 84, 85, 86, 87, 88, 89, 90, 91, 92, 93, 94, 95, 96, 97, 98, 99],
      "AcquisitionTime": ["163931.272500", "163933.605000", "163935.940000", "163938.275000", "163940.607500", "163942.942500", "163945.275000", "163947.610000", "163949.945000", "163952.277500", "163954.612500", "163956.945000", "163959.280000", "164001.615000", "164003.947500", "164006.282500", "164008.615000", "164010.950000", "164013.285000", "164015.617500", "164017.952500", "164020.285000", "164022.620000", "164024.955000", "164027.287500", "164029.622500", "164031.955000", "164034.290000", "164036.625000", "164038.957500", "164041.292500", "164043.625000", "164045.960000", "164048.295000", "164050.627500", "164052.962500", "164055.295000", "164057.630000", "164059.965000", "164102.297500", "164104.632500", "164106.965000", "164109.300000", "164111.635000", "164113.967500", "164116.302500", "164118.635000", "164120.970000", "164123.305000", "164125.637500", "164127.972500", "164130.305000", "164132.640000", "164134.975000", "164137.307500", "164139.642500", "164141.975000", "164144.310000", "164146.645000", "164148.977500", "164151.312500", "164153.645000", "164155.980000", "164158.315000", "164200.647500", "164202.982500", "164205.315000", "164207.650000", "164209.985000", "164212.317500", "164214.652500", "164216.985000", "164219.320000", "164221.655000", "164223.987500", "164226.322500", "164228.655000", "164230.990000", "164233.325000", "164235.657500", "164237.992500", "164240.325000", "164242.660000", "164244.995000", "164247.327500", "164249.662500", "164251.995000", "164254.330000", "164256.665000", "164258.997500", "164301.332500", "164303.665000", "164306.000000", "164308.335000", "164310.667500", "164313.002500", "164315.335000", "164317.670000", "164320.005000"],
      "ContentTime": ["164035.580000", "164035.584000", "164035.593000", "164035.596000", "164035.599000", "164035.602000", "164035.605000", "164035.608000", "164035.611000", "164035.614000", "164035.617000", "164035.627000", "164035.630000", "164035.633000", "164035.636000", "164035.639000", "164035.642000", "164035.645000", "164035.648000", "164035.651000", "164035.654000", "164035.657000", "164035.660000", "164035.663000", "164035.666000", "164035.670000", "164035.679000", "164135.549000", "164135.552000", "164135.556000", "164135.566000", "164135.569000", "164135.572000", "164135.575000", "164135.578000", "164135.581000", "164135.584000", "164135.588000", "164135.591000", "164135.594000", "164135.597000", "164135.600000", "164135.603000", "164135.606000", "164135.609000", "164135.612000", "164135.615000", "164135.618000", "164135.621000", "164135.624000", "164135.627000", "164135.630000", "164235.548000", "164235.551000", "164235.554000", "164235.557000", "164235.560000", "164235.563000", "164235.566000", "164235.569000", "164235.573000", "164235.576000", "164235.579000", "164235.582000", "164235.585000", "164235.588000", "164235.611000", "164235.614000", "164235.617000", "164235.620000", "164235.623000", "164235.626000", "164235.629000", "164235.632000", "164235.636000", "164235.639000", "164235.642000", "164235.645000", "164325.059000", "164325.062000", "164325.066000", "164325.069000", "164325.072000", "164325.075000", "164325.078000", "164325.081000", "164325.084000", "164325.088000", "164325.091000", "164325.095000", "164325.098000", "164325.102000", "164325.105000", "164325.109000", "164325.112000", "164325.115000", "164325.118000", "164325.122000", "164325.125000"],
      "InstanceCreationTime": ["164035.580000", "164035.584000", "164035.593000", "164035.596000", "164035.599000", "164035.602000", "164035.605000", "164035.608000", "164035.611000", "164035.614000", "164035.617000", "164035.627000", "164035.630000", "164035.633000", "164035.636000", "164035.639000", "164035.642000", "164035.645000", "164035.648000", "164035.651000", "164035.654000", "164035.657000", "164035.660000", "164035.663000", "164035.666000", "164035.670000", "164035.679000", "164135.549000", "164135.552000", "164135.556000", "164135.566000", "164135.569000", "164135.572000", "164135.575000", "164135.578000", "164135.581000", "164135.584000", "164135.588000", "164135.591000", "164135.594000", "164135.597000", "164135.600000", "164135.603000", "164135.606000", "164135.609000", "164135.612000", "164135.615000", "164135.618000", "164135.621000", "164135.624000", "164135.627000", "164135.630000", "164235.548000", "164235.551000", "164235.554000", "164235.557000", "164235.560000", "164235.563000", "164235.566000", "164235.569000", "164235.573000", "164235.576000", "164235.579000", "164235.582000", "164235.585000", "164235.588000", "164235.611000", "164235.614000", "164235.617000", "164235.620000", "164235.623000", "164235.626000", "164235.629000", "164235.632000", "164235.636000", "164235.639000", "164235.642000", "164235.645000", "164325.059000", "164325.062000", "164325.066000", "164325.069000", "164325.072000", "164325.075000", "164325.078000", "164325.081000", "164325.084000", "164325.088000", "164325.091000", "164325.095000", "164325.098000", "164325.102000", "164325.105000", "164325.109000", "164325.112000", "164325.115000", "164325.118000", "164325.122000", "164325.125000"],
      "InstanceNumber": [1, 2, 3, 4, 5, 6, 7, 8, 9, 10, 11, 12, 13, 14, 15, 16, 17, 18, 19, 20, 21, 22, 23, 24, 25, 26, 27, 28, 29, 30, 31, 32, 33, 34, 35, 36, 37, 38, 39, 40, 41, 42, 43, 44, 45, 46, 47, 48, 49, 50, 51, 52, 53, 54, 55, 56, 57, 58, 59, 60, 61, 62, 63, 64, 65, 66, 67, 68, 69, 70, 71, 72, 73, 74, 75, 76, 77, 78, 79, 80, 81, 82, 83, 84, 85, 86, 87, 88, 89, 90, 91, 92, 93, 94, 95, 96, 97, 98, 99],
      "LargestImagePixelValue": [39460, 45005, 11819, 5303, 11260, 4844, 11379, 6403, 10398, 5578, 12010, 4849, 10779, 5456, 10294, 6491, 12625, 40579, 5503, 10240, 5536, 9281, 4879, 11453, 4112, 12031, 6432, 9627, 6579, 10460, 5818, 11699, 5201, 44909, 9660, 5861, 11025, 4973, 11060, 4797, 9987, 4942, 12451, 4696, 10426, 6198, 10762, 6334, 12828, 63565, 5946, 9428, 4659, 10914, 6622, 10403, 4856, 10240, 5170, 11708, 6684, 10763, 5902, 10972, 5544, 42434, 10464, 5009, 9888, 5157, 12059, 5511, 11282, 6365, 12679, 5618, 11203, 4477, 9568, 6372, 11828, 43642, 4954, 11633, 5720, 10374, 6596, 11236, 4629, 12169, 6244, 11533, 4349, 10249, 5683, 11706, 6880, 11103, 4702],
      "SequenceName": [
 "ep_b5#1",
 "ep_b5#1",
 "ep_b1490#2",
 "ep_b2990#3",
 "ep_b1495#4",
 "ep_b3005#5",
 "ep_b1500#6",
 "ep_b2985#7",
 "ep_b1495#8",
 "ep_b3005#9",
 "ep_b1490#10",
 "ep_b2995#11",
 "ep_b1495#12",
 "ep_b2990#13",
 "ep_b1500#14",
 "ep_b2985#15",
 "ep_b1500#16",
 "ep_b5#17",
 "ep_b3005#18",
 "ep_b1490#19",
 "ep_b2995#20",
 "ep_b1495#21",
 "ep_b3000#22",
 "ep_b1495#23",
 "ep_b3000#24",
 "ep_b1490#25",
 "ep_b2985#26",
 "ep_b1505#27",
 "ep_b2990#28",
 "ep_b1495#29",
 "ep_b3000#30",
 "ep_b1490#31",
 "ep_b3000#32",
 "ep_b5#33",
 "ep_b1505#34",
 "ep_b3000#35",
 "ep_b1490#36",
 "ep_b2985#37",
 "ep_b1495#38",
 "ep_b2995#39",
 "ep_b1500#40",
 "ep_b2995#41",
 "ep_b1500#42",
 "ep_b2990#43",
 "ep_b1495#44",
 "ep_b3000#45",
 "ep_b1495#46",
 "ep_b3000#47",
 "ep_b1490#48",
 "ep_b5#49",
 "ep_b3000#50",
 "ep_b1495#51",
 "ep_b2990#52",
 "ep_b1505#53",
 "ep_b2995#54",
 "ep_b1495#55",
 "ep_b2990#56",
 "ep_b1490#57",
 "ep_b2995#58",
 "ep_b1500#59",
 "ep_b3000#60",
 "ep_b1500#61",
 "ep_b2985#62",
 "ep_b1500#63",
 "ep_b2990#64",
 "ep_b5#65",
 "ep_b1505#66",
 "ep_b3005#67",
 "ep_b1495#68",
 "ep_b3000#69",
 "ep_b1505#70",
 "ep_b3005#71",
 "ep_b1500#72",
 "ep_b3005#73",
 "ep_b1495#74",
 "ep_b2995#75",
 "ep_b1495#76",
 "ep_b2995#77",
 "ep_b1500#78",
 "ep_b3000#79",
 "ep_b1490#80",
 "ep_b5#81",
 "ep_b2990#82",
 "ep_b1500#83",
 "ep_b2985#84",
 "ep_b1495#85",
 "ep_b2995#86",
 "ep_b1495#87",
 "ep_b2995#88",
 "ep_b1490#89",
 "ep_b2985#90",
 "ep_b1500#91",
 "ep_b3000#92",
 "ep_b1495#93",
 "ep_b3005#94",
 "ep_b1495#95",
 "ep_b2990#96",
 "ep_b1500#97",
 "ep_b3000#98"
],
      "TriggerTime": [13297.5, 15630.0, 17965.0, 20297.5, 22632.5, 24967.5, 27300.0, 29635.0, 31967.5, 34302.5, 36637.5, 38970.0, 41305.0, 43637.5, 45972.5, 48307.5, 50640.0, 52975.0, 55307.5, 57642.5, 59977.5, 62310.0, 64645.0, 66977.5, 69312.5, 71647.5, 73980.0, 76315.0, 78647.5, 80982.5, 83317.5, 85650.0, 87985.0, 90317.5, 92652.5, 94987.5, 97320.0, 99655.0, 101987.5, 104322.5, 106657.5, 108990.0, 111325.0, 113657.5, 115992.5, 118327.5, 120660.0, 122995.0, 125327.5, 127662.5, 129997.5, 132330.0, 134665.0, 136997.5, 139332.5, 141667.5, 144000.0, 146335.0, 148667.5, 151002.5, 153337.5, 155670.0, 158005.0, 160337.5, 162672.5, 165007.5, 167340.0, 169675.0, 172007.5, 174342.5, 176677.5, 179010.0, 181345.0, 183677.5, 186012.5, 188347.5, 190680.0, 193015.0, 195347.5, 197682.5, 200017.5, 202350.0, 204685.0, 207017.5, 209352.5, 211687.5, 214020.0, 216355.0, 218687.5, 221022.5, 223357.5, 225690.0, 228025.0, 230357.5, 232692.5, 235027.5, 237360.0, 239695.0, 242027.5],
      "WindowCenter": [6830.0, 6891.0, 2637.0, 1565.0, 2662.0, 1540.0, 2670.0, 1547.0, 2588.0, 1517.0, 2636.0, 1541.0, 2689.0, 1545.0, 2606.0, 1562.0, 2606.0, 6772.0, 1551.0, 2639.0, 1544.0, 2622.0, 1503.0, 2593.0, 1525.0, 2618.0, 1558.0, 2625.0, 1577.0, 2661.0, 1533.0, 2628.0, 1552.0, 6810.0, 2625.0, 1517.0, 2580.0, 1525.0, 2639.0, 1558.0, 2638.0, 1493.0, 2617.0, 1541.0, 2598.0, 1557.0, 2591.0, 1566.0, 2646.0, 6973.0, 1545.0, 2659.0, 1516.0, 2597.0, 1563.0, 2617.0, 1555.0, 2651.0, 1505.0, 2604.0, 1536.0, 2595.0, 1535.0, 2668.0, 1554.0, 6811.0, 2606.0, 1544.0, 2624.0, 1551.0, 2633.0, 1524.0, 2616.0, 1556.0, 2619.0, 1555.0, 2623.0, 1545.0, 2651.0, 1540.0, 2654.0, 6822.0, 1541.0, 2575.0, 1543.0, 2662.0, 1561.0, 2590.0, 1499.0, 2607.0, 1561.0, 2601.0, 1535.0, 2660.0, 1550.0, 2630.0, 1569.0, 2622.0, 1542.0],
      "WindowWidth": [14772.0, 14876.0, 6278.0, 4032.0, 6326.0, 3982.0, 6333.0, 3992.0, 6193.0, 3924.0, 6275.0, 3987.0, 6369.0, 4010.0, 6221.0, 4025.0, 6212.0, 14638.0, 4006.0, 6289.0, 3981.0, 6250.0, 3923.0, 6192.0, 3973.0, 6240.0, 4002.0, 6255.0, 4063.0, 6325.0, 3967.0, 6260.0, 3999.0, 14710.0, 6258.0, 3930.0, 6173.0, 3945.0, 6270.0, 4031.0, 6273.0, 3888.0, 6229.0, 3986.0, 6212.0, 3998.0, 6187.0, 4048.0, 6289.0, 15002.0, 3981.0, 6314.0, 3952.0, 6205.0, 4035.0, 6243.0, 4012.0, 6305.0, 3903.0, 6214.0, 3951.0, 6203.0, 3966.0, 6327.0, 4019.0, 14719.0, 6216.0, 4003.0, 6266.0, 4004.0, 6257.0, 3948.0, 6234.0, 3990.0, 6236.0, 4024.0, 6258.0, 4002.0, 6308.0, 3971.0, 6299.0, 14727.0, 3987.0, 6155.0, 3973.0, 6323.0, 4026.0, 6184.0, 3906.0, 6222.0, 4010.0, 6206.0, 3992.0, 6318.0, 4007.0, 6259.0, 4035.0, 6254.0, 3982.0]
    },
    "slices": {}
  }
}