{
  "AcquisitionMatrixPE": 110,
  "AcquisitionNumber": 1,
  "AcquisitionTime": "16:43:40.682500",
  "BandwidthPerPixelPhaseEncode": 12.987,
  "BaseResolution": 110,
  "BodyPartExamined": "BRAIN",
  "ConsistencyInfo": "N4_VE11C_LATEST_20160120",
  "ConversionSoftware": "dcm2niix",
  "ConversionSoftwareVersion": "v1.0.20190902",
  "DerivedVendorReportedEchoSpacing": 0.000700001,
  "DeviceSerialNumber": "167006",
  "DiffusionScheme": "Monopolar",
  "DwellTime": 2.7e-06,
  "EchoTime": 0.0816,
  "EchoTrainLength": 83,
  "EffectiveEchoSpacing": 0.000700001,
  "FlipAngle": 78,
  "ImageComments": "Unaliased_MB3_PE3_LB_SENSE1",
  "ImageOrientationPatientDICOM": [1, 0, 0, 0, 0.942057, -0.335452],
  "ImageType": [
    "ORIGINAL",
    "PRIMARY",
    "DIFFUSION",
    "NONE",
    "MB",
    "ND",
    "MOSAIC"
],
  "ImagingFrequency": 123.259,
  "InPlanePhaseEncodingDirectionDICOM": "COL",
  "InstitutionAddress": "Chemin_Queen-Mary_4565_Montreal_District_CA_H3W_1W5",
  "InstitutionName": "IUGM",
  "InstitutionalDepartmentName": "Department",
  "MRAcquisitionType": "2D",
  "MagneticFieldStrength": 3,
  "Manufacturer": "Siemens",
  "ManufacturersModelName": "Prisma_fit",
  "Modality": "MR",
  "MultibandAccelerationFactor": 3,
  "PartialFourier": 0.75,
  "PatientPosition": "HFS",
  "PercentPhaseFOV": 100,
  "PhaseEncodingDirection": "j",
  "PhaseEncodingSteps": 83,
  "PhaseResolution": 1,
  "PixelBandwidth": 1685,
  "ProcedureStepDescription": "neuromod_generic",
  "ProtocolName": "dMRI_dir98_PA_test_cmrr",
  "PulseSequenceDetails": "%CustomerSeq%_cmrr_mbep2d_diff",
  "ReceiveCoilActiveElements": "HC1-6",
  "ReceiveCoilName": "HeadNeck_64",
  "ReconMatrixPE": 110,
  "RepetitionTime": 2.334,
  "SAR": 0.143571,
  "ScanOptions": "PFP_EXT",
  "ScanningSequence": "EP",
  "SequenceName": "ep_b5#1",
  "SequenceVariant": "SK_SS",
  "SeriesDescription": "dMRI_dir98_PA_test_cmrr",
  "SeriesNumber": 11,
  "ShimSetting": [624, -7202, -8841, 629, 70, 22, 29, -33],
  "SliceThickness": 2,
  "SliceTiming": [0, 1.2175, 0.1225, 1.34, 0.2425, 1.46, 0.365, 1.5825, 0.4875, 1.705, 0.6075, 1.8275, 0.73, 1.9475, 0.8525, 2.07, 0.975, 2.1925, 1.095, 0, 1.2175, 0.1225, 1.34, 0.2425, 1.46, 0.365, 1.5825, 0.4875, 1.705, 0.6075, 1.8275, 0.73, 1.9475, 0.8525, 2.07, 0.975, 2.1925, 1.095, 0, 1.2175, 0.1225, 1.34, 0.2425, 1.46, 0.365, 1.5825, 0.4875, 1.705, 0.6075, 1.8275, 0.73, 1.9475, 0.8525, 2.07, 0.975, 2.1925, 1.095],
  "SoftwareVersions": "syngo_MR_E11",
  "SpacingBetweenSlices": 2,
  "StationName": "MRC35049",
  "TotalReadoutTime": 0.0763001,
  "TxRefAmp": 250.791,
  "WipMemBlock": "cb0f1e8a-c11f-4197-8ec9-7754a746988b||Sequence: R016 ve11c/master r/e634e98; Dec 19 2017 11:11:25 by eja",
  "dcmmeta_affine": [
    [-2.0, 0.0, 0.0, 111.8072280883789],
    [0.0, 1.8841148614883423, -0.6709031462669373, -76.4405517578125],
    [0.0, 0.6709031462669373, 1.8841148614883423, -66.93142700195312],
    [0.0, 0.0, 0.0, 1.0]
],
  "dcmmeta_reorient_transform": [
    [0.0, -1.0, 0.0, 109.0],
    [1.0, 0.0, 0.0, 0.0],
    [0.0, 0.0, 1.0, 0.0],
    [0.0, 0.0, 0.0, 1.0]
],
  "dcmmeta_shape": [110, 110, 57, 99],
  "dcmmeta_slice_dim": 2,
  "dcmmeta_version": 0.6,
  "global": {
    "const": {
      "AcquisitionMatrix": [110, 0, 0, 110],
      "AngioFlag": "N",
      "BitsAllocated": 16,
      "BitsStored": 16,
      "BodyPartExamined": "BRAIN",
      "CardiacNumberOfImages": 1,
      "Columns": 880,
      "EchoNumbers": 1,
      "EchoTime": 81.6,
      "EchoTrainLength": 83,
      "FlipAngle": 78.0,
      "HighBit": 15,
      "ImageOrientationPatient": [1.0, 0.0, 0.0, 0.0, 0.94205745265343, -0.3354515701262],
      "ImagePositionPatient": [-881.80722892284, -854.31221124334, 264.49472591883],
      "ImageType": [
        "ORIGINAL",
        "PRIMARY",
        "DIFFUSION",
        "NONE",
        "MB",
        "ND",
        "MOSAIC"
],
      "ImagedNucleus": "1H",
      "ImagingFrequency": 123.259468,
      "InPlanePhaseEncodingDirection": "COL",
      "MRAcquisitionType": "2D",
      "MagneticFieldStrength": 3.0,
      "Manufacturer": "SIEMENS",
      "ManufacturerModelName": "Prisma_fit",
      "Modality": "MR",
      "NominalInterval": 0,
      "NumberOfAverages": 1.0,
      "NumberOfPhaseEncodingSteps": 83,
      "PercentPhaseFieldOfView": 100.0,
      "PercentSampling": 100.0,
      "PerformedProcedureStepStartTime": "162329.867000",
      "PhotometricInterpretation": "MONOCHROME2",
      "PixelBandwidth": 1685.0,
      "PixelRepresentation": 0,
      "PixelSpacing": [2.0, 2.0],
      "ProtocolName": "dMRI_dir98_PA_test_cmrr",
      "RepetitionTime": 2334.0,
      "Rows": 880,
      "SAR": 0.14357112920808,
      "SamplesPerPixel": 1,
      "ScanOptions": [
        "PFP",
        "EXT"
],
      "ScanningSequence": "EP",
      "SequenceVariant": [
        "SK",
        "SS"
],
      "SeriesDescription": "dMRI_dir98_PA_test_cmrr",
      "SeriesNumber": 11,
      "SeriesTime": "164440.049000",
      "SliceLocation": -37.411144900215,
      "SliceThickness": 2.0,
      "SmallestImagePixelValue": 0,
      "SoftwareVersions": "syngo MR E11",
      "SpacingBetweenSlices": 1.9999999796375,
      "SpecificCharacterSet": "ISO_IR 100",
      "StudyID": "1",
      "StudyTime": "162329.731000",
      "TransmitCoilName": "Body",
      "VariableFlipAngleFlag": "N",
      "WindowCenterWidthExplanation": "Algo1",
      "dBdt": 0.0},
    "slices": {}
  },
  "time": {
    "samples": {
      "AcquisitionNumber": [1, 2, 3, 4, 5, 6, 7, 8, 9, 10, 11, 12, 13, 14, 15, 16, 17, 18, 19, 20, 21, 22, 23, 24, 25, 26, 27, 28, 29, 30, 31, 32, 33, 34, 35, 36, 37, 38, 39, 40, 41, 42, 43, 44, 45, 46, 47, 48, 49, 50, 51, 52, 53, 54, 55, 56, 57, 58, 59, 60, 61, 62, 63, 64, 65, 66, 67, 68, 69, 70, 71, 72, 73, 74, 75, 76, 77, 78, 79, 80, 81, 82, 83, 84, 85, 86, 87, 88, 89, 90, 91, 92, 93, 94, 95, 96, 97, 98, 99],
      "AcquisitionTime": ["164340.682500", "164343.015000", "164345.350000", "164347.685000", "164350.017500", "164352.352500", "164354.685000", "164357.020000", "164359.355000", "164401.687500", "164404.022500", "164406.355000", "164408.690000", "164411.025000", "164413.357500", "164415.692500", "164418.025000", "164420.360000", "164422.695000", "164425.027500", "164427.362500", "164429.695000", "164432.030000", "164434.365000", "164436.697500", "164439.032500", "164441.365000", "164443.700000", "164446.035000", "164448.367500", "164450.702500", "164453.035000", "164455.370000", "164457.705000", "164500.037500", "164502.372500", "164504.705000", "164507.040000", "164509.375000", "164511.707500", "164514.042500", "164516.375000", "164518.710000", "164521.045000", "164523.377500", "164525.712500", "164528.045000", "164530.380000", "164532.715000", "164535.047500", "164537.382500", "164539.715000", "164542.050000", "164544.385000", "164546.717500", "164549.052500", "164551.385000", "164553.720000", "164556.055000", "164558.387500", "164600.722500", "164603.055000", "164605.390000", "164607.725000", "164610.057500", "164612.392500", "164614.725000", "164617.060000", "164619.395000", "164621.727500", "164624.062500", "164626.395000", "164628.730000", "164631.065000", "164633.397500", "164635.732500", "164638.065000", "164640.400000", "164642.735000", "164645.067500", "164647.402500", "164649.735000", "164652.070000", "164654.405000", "164656.737500", "164659.072500", "164701.405000", "164703.740000", "164706.075000", "164708.407500", "164710.742500", "164713.075000", "164715.410000", "164717.745000", "164720.077500", "164722.412500", "164724.745000", "164727.080000", "164729.415000"],
      "ContentTime": ["164440.052000", "164440.055000", "164440.059000", "164440.062000", "164440.065000", "164440.068000", "164440.071000", "164440.074000", "164440.077000", "164440.080000", "164440.087000", "164440.090000", "164440.094000", "164440.097000", "164440.100000", "164440.103000", "164440.106000", "164440.109000", "164440.112000", "164440.115000", "164440.118000", "164440.121000", "164440.124000", "164440.127000", "164440.130000", "164540.015000", "164540.019000", "164540.022000", "164540.025000", "164540.028000", "164540.031000", "164540.034000", "164540.037000", "164540.040000", "164540.043000", "164540.046000", "164540.049000", "164540.052000", "164540.055000", "164540.058000", "164540.061000", "164540.064000", "164540.067000", "164540.071000", "164540.074000", "164540.077000", "164540.087000", "164540.090000", "164540.093000", "164540.096000", "164640.015000", "164640.024000", "164640.027000", "164640.030000", "164640.033000", "164640.036000", "164640.039000", "164640.042000", "164640.045000", "164640.048000", "164640.051000", "164640.054000", "164640.057000", "164640.060000", "164640.063000", "164640.066000", "164640.070000", "164640.073000", "164640.076000", "164640.079000", "164640.082000", "164640.085000", "164640.088000", "164640.091000", "164640.094000", "164640.097000", "164734.525000", "164734.528000", "164734.531000", "164734.535000", "164734.538000", "164734.541000", "164734.544000", "164734.547000", "164734.550000", "164734.553000", "164734.556000", "164734.559000", "164734.562000", "164734.565000", "164734.568000", "164734.571000", "164734.574000", "164734.577000", "164734.581000", "164734.584000", "164734.587000", "164734.590000", "164734.593000"],
      "InstanceCreationTime": ["164440.052000", "164440.055000", "164440.059000", "164440.062000", "164440.065000", "164440.068000", "164440.071000", "164440.074000", "164440.077000", "164440.080000", "164440.087000", "164440.090000", "164440.094000", "164440.097000", "164440.100000", "164440.103000", "164440.106000", "164440.109000", "164440.112000", "164440.115000", "164440.118000", "164440.121000", "164440.124000", "164440.127000", "164440.130000", "164540.015000", "164540.019000", "164540.022000", "164540.025000", "164540.028000", "164540.031000", "164540.034000", "164540.037000", "164540.040000", "164540.043000", "164540.046000", "164540.049000", "164540.052000", "164540.055000", "164540.058000", "164540.061000", "164540.064000", "164540.067000", "164540.071000", "164540.074000", "164540.077000", "164540.087000", "164540.090000", "164540.093000", "164540.096000", "164640.015000", "164640.024000", "164640.027000", "164640.030000", "164640.033000", "164640.036000", "164640.039000", "164640.042000", "164640.045000", "164640.048000", "164640.051000", "164640.054000", "164640.057000", "164640.060000", "164640.063000", "164640.066000", "164640.070000", "164640.073000", "164640.076000", "164640.079000", "164640.082000", "164640.085000", "164640.088000", "164640.091000", "164640.094000", "164640.097000", "164734.525000", "164734.528000", "164734.531000", "164734.535000", "164734.538000", "164734.541000", "164734.544000", "164734.547000", "164734.550000", "164734.553000", "164734.556000", "164734.559000", "164734.562000", "164734.565000", "164734.568000", "164734.571000", "164734.574000", "164734.577000", "164734.581000", "164734.584000", "164734.587000", "164734.590000", "164734.593000"],
      "InstanceNumber": [1, 2, 3, 4, 5, 6, 7, 8, 9, 10, 11, 12, 13, 14, 15, 16, 17, 18, 19, 20, 21, 22, 23, 24, 25, 26, 27, 28, 29, 30, 31, 32, 33, 34, 35, 36, 37, 38, 39, 40, 41, 42, 43, 44, 45, 46, 47, 48, 49, 50, 51, 52, 53, 54, 55, 56, 57, 58, 59, 60, 61, 62, 63, 64, 65, 66, 67, 68, 69, 70, 71, 72, 73, 74, 75, 76, 77, 78, 79, 80, 81, 82, 83, 84, 85, 86, 87, 88, 89, 90, 91, 92, 93, 94, 95, 96, 97, 98, 99],
      "LargestImagePixelValue": [60992, 60822, 20715, 7931, 19782, 11433, 18807, 9337, 18213, 9382, 20467, 8901, 20868, 8737, 17794, 9392, 18904, 62218, 10937, 18555, 7689, 19092, 10407, 19110, 8883, 19492, 10188, 23167, 7841, 18422, 8298, 19495, 9926, 62517, 20706, 7617, 19281, 11622, 19543, 8639, 20770, 7716, 19749, 10747, 19175, 8013, 19461, 9729, 20530, 63089, 11383, 20608, 7649, 19248, 8876, 18049, 9623, 19869, 8686, 18382, 9405, 18154, 10828, 19869, 8529, 62455, 21250, 9634, 17561, 8420, 20982, 9880, 18843, 11191, 19745, 7508, 19794, 9397, 19952, 7468, 19246, 61126, 11719, 19376, 7833, 21360, 8992, 18629, 7933, 18605, 11992, 19986, 8641, 21117, 9064, 19423, 8778, 17628, 10583],
      "SequenceName": [
 "ep_b5#1",
 "ep_b5#1",
 "ep_b1490#2",
 "ep_b2990#3",
 "ep_b1495#4",
 "ep_b3005#5",
 "ep_b1500#6",
 "ep_b2985#7",
 "ep_b1495#8",
 "ep_b3005#9",
 "ep_b1490#10",
 "ep_b2995#11",
 "ep_b1495#12",
 "ep_b2990#13",
 "ep_b1500#14",
 "ep_b2985#15",
 "ep_b1500#16",
 "ep_b5#17",
 "ep_b3005#18",
 "ep_b1490#19",
 "ep_b2995#20",
 "ep_b1495#21",
 "ep_b3000#22",
 "ep_b1495#23",
 "ep_b3000#24",
 "ep_b1490#25",
 "ep_b2985#26",
 "ep_b1505#27",
 "ep_b2990#28",
 "ep_b1495#29",
 "ep_b3000#30",
 "ep_b1490#31",
 "ep_b3000#32",
 "ep_b5#33",
 "ep_b1505#34",
 "ep_b3000#35",
 "ep_b1490#36",
 "ep_b2985#37",
 "ep_b1495#38",
 "ep_b2995#39",
 "ep_b1500#40",
 "ep_b2995#41",
 "ep_b1500#42",
 "ep_b2990#43",
 "ep_b1495#44",
 "ep_b3000#45",
 "ep_b1495#46",
 "ep_b3000#47",
 "ep_b1490#48",
 "ep_b5#49",
 "ep_b3000#50",
 "ep_b1495#51",
 "ep_b2990#52",
 "ep_b1505#53",
 "ep_b2995#54",
 "ep_b1495#55",
 "ep_b2990#56",
 "ep_b1490#57",
 "ep_b2995#58",
 "ep_b1500#59",
 "ep_b3000#60",
 "ep_b1500#61",
 "ep_b2985#62",
 "ep_b1500#63",
 "ep_b2990#64",
 "ep_b5#65",
 "ep_b1505#66",
 "ep_b3005#67",
 "ep_b1495#68",
 "ep_b3000#69",
 "ep_b1505#70",
 "ep_b3005#71",
 "ep_b1500#72",
 "ep_b3005#73",
 "ep_b1495#74",
 "ep_b2995#75",
 "ep_b1495#76",
 "ep_b2995#77",
 "ep_b1500#78",
 "ep_b3000#79",
 "ep_b1490#80",
 "ep_b5#81",
 "ep_b2990#82",
 "ep_b1500#83",
 "ep_b2985#84",
 "ep_b1495#85",
 "ep_b2995#86",
 "ep_b1495#87",
 "ep_b2995#88",
 "ep_b1490#89",
 "ep_b2985#90",
 "ep_b1500#91",
 "ep_b3000#92",
 "ep_b1495#93",
 "ep_b3005#94",
 "ep_b1495#95",
 "ep_b2990#96",
 "ep_b1500#97",
 "ep_b3000#98"
],
      "TriggerTime": [13297.5, 15630.0, 17965.0, 20297.5, 22632.5, 24967.5, 27300.0, 29635.0, 31967.5, 34302.5, 36637.5, 38970.0, 41305.0, 43637.5, 45972.5, 48307.5, 50640.0, 52975.0, 55307.5, 57642.5, 59977.5, 62310.0, 64645.0, 66977.5, 69312.5, 71647.5, 73980.0, 76315.0, 78647.5, 80982.5, 83317.5, 85650.0, 87985.0, 90317.5, 92652.5, 94987.5, 97320.0, 99655.0, 101987.5, 104322.5, 106657.5, 108990.0, 111325.0, 113657.5, 115992.5, 118327.5, 120660.0, 122995.0, 125327.5, 127662.5, 129997.5, 132330.0, 134665.0, 136997.5, 139332.5, 141667.5, 144000.0, 146335.0, 148667.5, 151002.5, 153337.5, 155670.0, 158005.0, 160337.5, 162672.5, 165007.5, 167340.0, 169675.0, 172007.5, 174342.5, 176677.5, 179010.0, 181345.0, 183677.5, 186012.5, 188347.5, 190680.0, 193015.0, 195347.5, 197682.5, 200017.5, 202350.0, 204685.0, 207017.5, 209352.5, 211687.5, 214020.0, 216355.0, 218687.5, 221022.5, 223357.5, 225690.0, 228025.0, 230357.5, 232692.5, 235027.5, 237360.0, 239695.0, 242027.5],
      "WindowCenter": [7120.0, 7107.0, 2809.0, 1664.0, 2774.0, 1747.0, 2804.0, 1682.0, 2774.0, 1640.0, 2780.0, 1698.0, 2829.0, 1700.0, 2742.0, 1653.0, 2748.0, 7055.0, 1712.0, 2808.0, 1636.0, 2809.0, 1720.0, 2784.0, 1711.0, 2759.0, 1665.0, 2830.0, 1643.0, 2755.0, 1612.0, 2762.0, 1716.0, 7029.0, 2804.0, 1635.0, 2780.0, 1725.0, 2793.0, 1708.0, 2822.0, 1639.0, 2771.0, 1755.0, 2799.0, 1637.0, 2794.0, 1685.0, 2786.0, 7033.0, 1731.0, 2825.0, 1667.0, 2754.0, 1667.0, 2743.0, 1712.0, 2816.0, 1621.0, 2746.0, 1650.0, 2737.0, 1710.0, 2820.0, 1680.0, 7046.0, 2797.0, 1700.0, 2753.0, 1660.0, 2815.0, 1702.0, 2768.0, 1689.0, 2767.0, 1615.0, 2797.0, 1718.0, 2789.0, 1595.0, 2773.0, 6983.0, 1760.0, 2762.0, 1626.0, 2812.0, 1686.0, 2758.0, 1662.0, 2753.0, 1711.0, 2778.0, 1693.0, 2825.0, 1660.0, 2776.0, 1643.0, 2710.0, 1733.0],
      "WindowWidth": [15585.0, 15551.0, 6758.0, 4259.0, 6669.0, 4479.0, 6702.0, 4308.0, 6668.0, 4227.0, 6710.0, 4342.0, 6790.0, 4357.0, 6591.0, 4254.0, 6624.0, 15442.0, 4385.0, 6750.0, 4199.0, 6736.0, 4388.0, 6679.0, 4370.0, 6651.0, 4268.0, 6831.0, 4230.0, 6623.0, 4168.0, 6640.0, 4404.0, 15386.0, 6778.0, 4204.0, 6691.0, 4402.0, 6693.0, 4347.0, 6797.0, 4217.0, 6663.0, 4473.0, 6714.0, 4211.0, 6704.0, 4317.0, 6720.0, 15380.0, 4429.0, 6764.0, 4275.0, 6664.0, 4273.0, 6594.0, 4378.0, 6785.0, 4171.0, 6602.0, 4235.0, 6597.0, 4371.0, 6725.0, 4299.0, 15416.0, 6760.0, 4361.0, 6627.0, 4246.0, 6795.0, 4372.0, 6637.0, 4314.0, 6671.0, 4174.0, 6727.0, 4372.0, 6706.0, 4118.0, 6663.0, 15293.0, 4493.0, 6647.0, 4189.0, 6774.0, 4321.0, 6637.0, 4257.0, 6651.0, 4373.0, 6681.0, 4321.0, 6755.0, 4275.0, 6644.0, 4230.0, 6560.0, 4449.0]
    },
    "slices": {}
  }
}