{
  "AcquisitionMatrixPE": 110,
  "AcquisitionNumber": 1,
  "AcquisitionTime": "13:24:45.532500",
  "BandwidthPerPixelPhaseEncode": 12.987,
  "BaseResolution": 110,
  "BodyPartExamined": "BRAIN",
  "CoilCombinationMethod": "Sum of Squares",
  "ConsistencyInfo": "N4_VE11C_LATEST_20160120",
  "ConversionSoftware": "dcm2niix",
  "ConversionSoftwareVersion": "v1.0.20211006",
  "DerivedVendorReportedEchoSpacing": 0.000700001,
  "DeviceSerialNumber": "167006",
  "DiffusionScheme": "Monopolar",
  "DwellTime": 2.7e-06,
  "EchoTime": 0.0768,
  "EchoTrainLength": 83,
  "EffectiveEchoSpacing": 0.000700001,
  "FlipAngle": 78,
  "HeudiconvVersion": "0.5.3.post569+g418601f",
  "ImageComments": "Unaliased MB3/PE3/LB SENSE1",
  "ImageOrientationPatientDICOM": [1, 0, 0, 0, 0.956305, -0.292372],
  "ImageOrientationText": "Tra>Cor(-17.0)",
  "ImageType": [
    "ORIGINAL",
    "PRIMARY",
    "DIFFUSION",
    "NONE",
    "MB",
    "ND",
    "MOSAIC"
],
  "ImagingFrequency": 123.259,
  "InPlanePhaseEncodingDirectionDICOM": "COL",
  "InstitutionAddress": "Chemin Queen-Mary 4565,Montreal,District,CA,H3W 1W5",
  "InstitutionName": "IUGM",
  "InstitutionalDepartmentName": "Department",
  "MRAcquisitionType": "2D",
  "MagneticFieldStrength": 3,
  "Manufacturer": "Siemens",
  "ManufacturersModelName": "Prisma_fit",
  "MatrixCoilMode": "SENSE",
  "Modality": "MR",
  "MultibandAccelerationFactor": 3,
  "PartialFourier": 0.75,
  "PatientPosition": "HFS",
  "PercentPhaseFOV": 100,
  "PercentSampling": 100,
  "PhaseEncodingDirection": "j-",
  "PhaseEncodingSteps": 83,
  "PhaseResolution": 1,
  "PixelBandwidth": 1685,
  "ProcedureStepDescription": "anat^generic",
  "ProtocolName": "dMRI_dir106_AP_test_cmrr",
  "PulseSequenceDetails": "%CustomerSeq%\\cmrr_mbep2d_diff",
  "ReceiveCoilActiveElements": "HC1-6",
  "ReceiveCoilName": "HeadNeck_64",
  "ReconMatrixPE": 110,
  "RepetitionTime": 2.243,
  "SAR": 0.116819,
  "ScanOptions": "PFP\\EXT",
  "ScanningSequence": "EP",
  "SequenceName": "ep_b5#1",
  "SequenceVariant": "SK\\SS",
  "SeriesDescription": "dMRI_dir106_AP_test_cmrr",
  "SeriesNumber": 7,
  "ShimSetting": [639, -7233, -8809, 724, 24, -31, 98, -8],
  "SliceThickness": 2,
  "SliceTiming": [0, 1.17, 0.115, 1.285, 0.2325, 1.4025, 0.35, 1.52, 0.4675, 1.6375, 0.585, 1.755, 0.7, 1.87, 0.8175, 1.9875, 0.935, 2.105, 1.0525, 0, 1.17, 0.115, 1.285, 0.2325, 1.4025, 0.35, 1.52, 0.4675, 1.6375, 0.585, 1.755, 0.7, 1.87, 0.8175, 1.9875, 0.935, 2.105, 1.0525, 0, 1.17, 0.115, 1.285, 0.2325, 1.4025, 0.35, 1.52, 0.4675, 1.6375, 0.585, 1.755, 0.7, 1.87, 0.8175, 1.9875, 0.935, 2.105, 1.0525],
  "SoftwareVersions": "syngo MR E11",
  "SpacingBetweenSlices": 2,
  "StationName": "MRC35049",
  "TotalReadoutTime": 0.0763001,
  "TxRefAmp": 204.869,
  "WipMemBlock": "059ceb88-eee0-4c53-b214-b665f1c5cc8e||Sequence: R016 ve11c/master r/e634e98; Dec 19 2017 11:11:25 by eja",
  "dcmmeta_affine": [
    [-2.0, 0.0, 0.0, 112.0],
    [0.0, 1.9126094579696655, -0.5847434401512146, -77.58824157714844],
    [0.0, 0.5847434401512146, 1.9126094579696655, -65.72566223144531],
    [0.0, 0.0, 0.0, 1.0]
],
  "dcmmeta_reorient_transform": [
    [0.0, -1.0, 0.0, 109.0],
    [1.0, 0.0, 0.0, 0.0],
    [0.0, 0.0, 1.0, 0.0],
    [0.0, 0.0, 0.0, 1.0]
],
  "dcmmeta_shape": [110, 110, 57, 107],
  "dcmmeta_slice_dim": 2,
  "dcmmeta_version": 0.6,
  "global": {
    "const": {
      "AcquisitionMatrix": [110, 0, 0, 110],
      "AngioFlag": "N",
      "BitsAllocated": 16,
      "BitsStored": 16,
      "BodyPartExamined": "BRAIN",
      "CardiacNumberOfImages": 1,
      "Columns": 880,
      "EchoNumbers": 1,
      "EchoTime": 76.8,
      "EchoTrainLength": 83,
      "FlipAngle": 78.0,
      "HighBit": 15,
      "ImageOrientationPatient": [1.0, 0.0, 0.0, 0.0, 0.95630475535632, -0.2923717067072],
      "ImagePositionPatient": [-882.0, -867.2408593504, 223.13758102832],
      "ImageType": [
        "ORIGINAL",
        "PRIMARY",
        "DIFFUSION",
        "NONE",
        "MB",
        "ND",
        "MOSAIC"
],
      "ImagedNucleus": "1H",
      "ImagingFrequency": 123.258868,
      "InPlanePhaseEncodingDirection": "COL",
      "MRAcquisitionType": "2D",
      "MagneticFieldStrength": 3.0,
      "Manufacturer": "SIEMENS",
      "ManufacturerModelName": "Prisma_fit",
      "Modality": "MR",
      "NominalInterval": 0,
      "NumberOfAverages": 1.0,
      "NumberOfPhaseEncodingSteps": 83,
      "PercentPhaseFieldOfView": 100.0,
      "PercentSampling": 100.0,
      "PerformedProcedureStepStartTime": "130056.307000",
      "PhotometricInterpretation": "MONOCHROME2",
      "PixelBandwidth": 1685.0,
      "PixelRepresentation": 0,
      "PixelSpacing": [2.0, 2.0],
      "ProtocolName": "dMRI_dir106_AP_test_cmrr",
      "RepetitionTime": 2243.0,
      "Rows": 880,
      "SAR": 0.1168185030231,
      "SamplesPerPixel": 1,
      "ScanOptions": [
        "PFP",
        "EXT"
],
      "ScanningSequence": "EP",
      "SequenceVariant": [
        "SK",
        "SS"
],
      "SeriesDescription": "dMRI_dir106_AP_test_cmrr",
      "SeriesNumber": 7,
      "SeriesTime": "132540.866000",
      "SliceLocation": -40.169160338415,
      "SliceThickness": 2.0,
      "SmallestImagePixelValue": 0,
      "SoftwareVersions": "syngo MR E11",
      "SpacingBetweenSlices": 1.9999999987675,
      "SpecificCharacterSet": "ISO_IR 100",
      "StudyID": "1",
      "StudyTime": "130056.150000",
      "TransmitCoilName": "Body",
      "VariableFlipAngleFlag": "N",
      "WindowCenterWidthExplanation": "Algo1",
      "dBdt": 0.0},
    "slices": {}
  },
  "time": {
    "samples": {
      "AcquisitionNumber": [1, 2, 3, 4, 5, 6, 7, 8, 9, 10, 11, 12, 13, 14, 15, 16, 17, 18, 19, 20, 21, 22, 23, 24, 25, 26, 27, 28, 29, 30, 31, 32, 33, 34, 35, 36, 37, 38, 39, 40, 41, 42, 43, 44, 45, 46, 47, 48, 49, 50, 51, 52, 53, 54, 55, 56, 57, 58, 59, 60, 61, 62, 63, 64, 65, 66, 67, 68, 69, 70, 71, 72, 73, 74, 75, 76, 77, 78, 79, 80, 81, 82, 83, 84, 85, 86, 87, 88, 89, 90, 91, 92, 93, 94, 95, 96, 97, 98, 99, 100, 101, 102, 103, 104, 105, 106, 107],
      "AcquisitionTime": ["132445.532500", "132447.775000", "132450.017500", "132452.260000", "132454.505000", "132456.747500", "132458.990000", "132501.232500", "132503.475000", "132505.720000", "132507.962500", "132510.205000", "132512.447500", "132514.690000", "132516.935000", "132519.177500", "132521.420000", "132523.662500", "132525.905000", "132528.150000", "132530.392500", "132532.635000", "132534.877500", "132537.120000", "132539.365000", "132541.607500", "132543.850000", "132546.092500", "132548.335000", "132550.580000", "132552.822500", "132555.065000", "132557.307500", "132559.550000", "132601.795000", "132604.037500", "132606.280000", "132608.522500", "132610.765000", "132613.010000", "132615.252500", "132617.495000", "132619.737500", "132621.980000", "132624.225000", "132626.467500", "132628.710000", "132630.952500", "132633.195000", "132635.440000", "132637.682500", "132639.925000", "132642.167500", "132644.410000", "132646.655000", "132648.897500", "132651.140000", "132653.382500", "132655.625000", "132657.870000", "132700.112500", "132702.355000", "132704.597500", "132706.840000", "132709.085000", "132711.327500", "132713.570000", "132715.812500", "132718.055000", "132720.300000", "132722.542500", "132724.785000", "132727.027500", "132729.270000", "132731.515000", "132733.757500", "132736.000000", "132738.242500", "132740.485000", "132742.730000", "132744.972500", "132747.215000", "132749.457500", "132751.700000", "132753.945000", "132756.187500", "132758.430000", "132800.672500", "132802.915000", "132805.160000", "132807.402500", "132809.645000", "132811.887500", "132814.130000", "132816.375000", "132818.617500", "132820.860000", "132823.102500", "132825.345000", "132827.590000", "132829.832500", "132832.075000", "132834.317500", "132836.560000", "132838.805000", "132841.047500", "132843.290000"],
      "ContentTime": ["132540.868000", "132540.881000", "132540.884000", "132540.887000", "132540.890000", "132540.893000", "132540.897000", "132540.900000", "132540.903000", "132540.906000", "132540.909000", "132540.912000", "132540.915000", "132540.918000", "132540.921000", "132540.924000", "132540.928000", "132540.931000", "132540.934000", "132540.937000", "132540.940000", "132540.943000", "132540.946000", "132540.949000", "132640.845000", "132640.848000", "132640.851000", "132640.855000", "132640.858000", "132640.861000", "132640.864000", "132640.867000", "132640.870000", "132640.873000", "132640.876000", "132640.879000", "132640.882000", "132640.885000", "132640.888000", "132640.892000", "132640.904000", "132640.908000", "132640.919000", "132640.922000", "132640.926000", "132640.929000", "132640.932000", "132640.935000", "132640.938000", "132640.941000", "132640.944000", "132740.844000", "132740.847000", "132740.851000", "132740.854000", "132740.857000", "132740.860000", "132740.863000", "132740.866000", "132740.869000", "132740.872000", "132740.875000", "132740.878000", "132740.881000", "132740.884000", "132740.887000", "132740.891000", "132740.894000", "132740.897000", "132740.900000", "132740.903000", "132740.906000", "132740.909000", "132740.912000", "132740.915000", "132740.918000", "132740.921000", "132840.845000", "132840.848000", "132840.852000", "132840.873000", "132840.876000", "132840.879000", "132840.882000", "132840.885000", "132840.888000", "132840.891000", "132840.894000", "132840.897000", "132840.901000", "132840.904000", "132840.907000", "132840.910000", "132840.913000", "132840.916000", "132840.919000", "132840.923000", "132840.926000", "132840.929000", "132840.932000", "132840.935000", "132840.938000", "132840.941000", "132840.944000", "132848.063000", "132848.067000", "132848.070000"],
      "InstanceCreationTime": ["132540.868000", "132540.881000", "132540.884000", "132540.887000", "132540.890000", "132540.893000", "132540.897000", "132540.900000", "132540.903000", "132540.906000", "132540.909000", "132540.912000", "132540.915000", "132540.918000", "132540.921000", "132540.924000", "132540.928000", "132540.931000", "132540.934000", "132540.937000", "132540.940000", "132540.943000", "132540.946000", "132540.949000", "132640.845000", "132640.848000", "132640.851000", "132640.855000", "132640.858000", "132640.861000", "132640.864000", "132640.867000", "132640.870000", "132640.873000", "132640.876000", "132640.879000", "132640.882000", "132640.885000", "132640.888000", "132640.892000", "132640.904000", "132640.908000", "132640.919000", "132640.922000", "132640.926000", "132640.929000", "132640.932000", "132640.935000", "132640.938000", "132640.941000", "132640.944000", "132740.844000", "132740.847000", "132740.851000", "132740.854000", "132740.857000", "132740.860000", "132740.863000", "132740.866000", "132740.869000", "132740.872000", "132740.875000", "132740.878000", "132740.881000", "132740.884000", "132740.887000", "132740.891000", "132740.894000", "132740.897000", "132740.900000", "132740.903000", "132740.906000", "132740.909000", "132740.912000", "132740.915000", "132740.918000", "132740.921000", "132840.845000", "132840.848000", "132840.852000", "132840.873000", "132840.876000", "132840.879000", "132840.882000", "132840.885000", "132840.888000", "132840.891000", "132840.894000", "132840.897000", "132840.901000", "132840.904000", "132840.907000", "132840.910000", "132840.913000", "132840.916000", "132840.919000", "132840.923000", "132840.926000", "132840.929000", "132840.932000", "132840.935000", "132840.938000", "132840.941000", "132840.944000", "132848.063000", "132848.067000", "132848.070000"],
      "InstanceNumber": [1, 2, 3, 4, 5, 6, 7, 8, 9, 10, 11, 12, 13, 14, 15, 16, 17, 18, 19, 20, 21, 22, 23, 24, 25, 26, 27, 28, 29, 30, 31, 32, 33, 34, 35, 36, 37, 38, 39, 40, 41, 42, 43, 44, 45, 46, 47, 48, 49, 50, 51, 52, 53, 54, 55, 56, 57, 58, 59, 60, 61, 62, 63, 64, 65, 66, 67, 68, 69, 70, 71, 72, 73, 74, 75, 76, 77, 78, 79, 80, 81, 82, 83, 84, 85, 86, 87, 88, 89, 90, 91, 92, 93, 94, 95, 96, 97, 98, 99, 100, 101, 102, 103, 104, 105, 106, 107],
      "LargestImagePixelValue": [33354, 33308, 13586, 6993, 13232, 12455, 21678, 7189, 7495, 6148, 14453, 21391, 7357, 7300, 7546, 7282, 13100, 6956, 7324, 9030, 7254, 32883, 13932, 7319, 14655, 12488, 8207, 6543, 7514, 6281, 21810, 6829, 13250, 7581, 6481, 22592, 7885, 6596, 13100, 7012, 7307, 33548, 7231, 7129, 7945, 21705, 12893, 7126, 6678, 12386, 8326, 13866, 12457, 8909, 22492, 13066, 7805, 13169, 7050, 7606, 13273, 33641, 13140, 7307, 7826, 7629, 7016, 22668, 12651, 13776, 6325, 7031, 7260, 6490, 13130, 6812, 6892, 7317, 12903, 13965, 6865, 33789, 13020, 7221, 7429, 12448, 14206, 7446, 13705, 7256, 7182, 6867, 13282, 8097, 6871, 9037, 21526, 12925, 7311, 13581, 11882, 33459, 7030, 7601, 12285, 6800, 7930],
      "SequenceName": [
 "ep_b5#1",
 "ep_b5#1",
 "ep_b1000#2",
 "ep_b2005#3",
 "ep_b1000#4",
 "ep_b995#5",
 "ep_b300#6",
 "ep_b1995#7",
 "ep_b2000#8",
 "ep_b2000#9",
 "ep_b995#10",
 "ep_b300#11",
 "ep_b1990#12",
 "ep_b2005#13",
 "ep_b2005#14",
 "ep_b1995#15",
 "ep_b1000#16",
 "ep_b2000#17",
 "ep_b2005#18",
 "ep_b1995#19",
 "ep_b1995#20",
 "ep_b5#21",
 "ep_b995#22",
 "ep_b1990#23",
 "ep_b995#24",
 "ep_b1000#25",
 "ep_b2000#26",
 "ep_b1995#27",
 "ep_b1990#28",
 "ep_b1995#29",
 "ep_b300#30",
 "ep_b2000#31",
 "ep_b1005#32",
 "ep_b2000#33",
 "ep_b2000#34",
 "ep_b300#35",
 "ep_b2005#36",
 "ep_b1995#37",
 "ep_b1005#38",
 "ep_b2000#39",
 "ep_b2005#40",
 "ep_b5#41",
 "ep_b1995#42",
 "ep_b2005#43",
 "ep_b1995#44",
 "ep_b305#45",
 "ep_b1005#46",
 "ep_b2005#47",
 "ep_b2000#48",
 "ep_b1005#49",
 "ep_b2000#50",
 "ep_b995#51",
 "ep_b1000#52",
 "ep_b1995#53",
 "ep_b300#54",
 "ep_b1000#55",
 "ep_b2000#56",
 "ep_b1005#57",
 "ep_b2010#58",
 "ep_b2000#59",
 "ep_b1000#60",
 "ep_b5#61",
 "ep_b1000#62",
 "ep_b1995#63",
 "ep_b1995#64",
 "ep_b2005#65",
 "ep_b2010#66",
 "ep_b300#67",
 "ep_b1005#68",
 "ep_b1000#69",
 "ep_b2000#70",
 "ep_b1995#71",
 "ep_b2005#72",
 "ep_b2005#73",
 "ep_b1005#74",
 "ep_b2000#75",
 "ep_b2005#76",
 "ep_b2000#77",
 "ep_b1005#78",
 "ep_b1000#79",
 "ep_b1995#80",
 "ep_b5#81",
 "ep_b995#82",
 "ep_b2010#83",
 "ep_b2000#84",
 "ep_b995#85",
 "ep_b1000#86",
 "ep_b1995#87",
 "ep_b1005#88",
 "ep_b2005#89",
 "ep_b2005#90",
 "ep_b1995#91",
 "ep_b1005#92",
 "ep_b2005#93",
 "ep_b2000#94",
 "ep_b1995#95",
 "ep_b300#96",
 "ep_b995#97",
 "ep_b2000#98",
 "ep_b1000#99",
 "ep_b995#100",
 "ep_b5#101",
 "ep_b2005#102",
 "ep_b2005#103",
 "ep_b1000#104",
 "ep_b2005#105",
 "ep_b1995#106"
],
      "TriggerTime": [12837.5, 15080.0, 17322.5, 19565.0, 21807.5, 24052.5, 26295.0, 28537.5, 30780.0, 33022.5, 35267.5, 37510.0, 39752.5, 41995.0, 44237.5, 46482.5, 48725.0, 50967.5, 53210.0, 55452.5, 57697.5, 59940.0, 62182.5, 64425.0, 66667.5, 68912.5, 71155.0, 73397.5, 75640.0, 77882.5, 80127.5, 82370.0, 84612.5, 86855.0, 89097.5, 91342.5, 93585.0, 95827.5, 98070.0, 100312.5, 102557.5, 104800.0, 107042.5, 109285.0, 111527.5, 113772.5, 116015.0, 118257.5, 120500.0, 122742.5, 124987.5, 127230.0, 129472.5, 131715.0, 133957.5, 136202.5, 138445.0, 140687.5, 142930.0, 145172.5, 147417.5, 149660.0, 151902.5, 154145.0, 156387.5, 158632.5, 160875.0, 163117.5, 165360.0, 167602.5, 169847.5, 172090.0, 174332.5, 176575.0, 178817.5, 181062.5, 183305.0, 185547.5, 187790.0, 190032.5, 192277.5, 194520.0, 196762.5, 199005.0, 201247.5, 203492.5, 205735.0, 207977.5, 210220.0, 212462.5, 214707.5, 216950.0, 219192.5, 221435.0, 223677.5, 225922.5, 228165.0, 230407.5, 232650.0, 234892.5, 237137.5, 239380.0, 241622.5, 243865.0, 246107.5, 248352.5, 250595.0],
      "WindowCenter": [7037.0, 7027.0, 3528.0, 2248.0, 3481.0, 3446.0, 5302.0, 2223.0, 2271.0, 2219.0, 3554.0, 5297.0, 2234.0, 2236.0, 2273.0, 2258.0, 3460.0, 2248.0, 2294.0, 2322.0, 2231.0, 6980.0, 3529.0, 2285.0, 3552.0, 3446.0, 2285.0, 2224.0, 2250.0, 2194.0, 5294.0, 2243.0, 3496.0, 2239.0, 2215.0, 5311.0, 2290.0, 2201.0, 3451.0, 2258.0, 2242.0, 6898.0, 2293.0, 2237.0, 2285.0, 5283.0, 3483.0, 2220.0, 2253.0, 3472.0, 2268.0, 3497.0, 3468.0, 2353.0, 5287.0, 3467.0, 2272.0, 3515.0, 2254.0, 2301.0, 3477.0, 6946.0, 3476.0, 2223.0, 2296.0, 2226.0, 2238.0, 5299.0, 3464.0, 3482.0, 2229.0, 2258.0, 2279.0, 2245.0, 3454.0, 2250.0, 2269.0, 2227.0, 3442.0, 3491.0, 2219.0, 6947.0, 3460.0, 2279.0, 2214.0, 3437.0, 3513.0, 2216.0, 3469.0, 2267.0, 2285.0, 2221.0, 3522.0, 2270.0, 2271.0, 2311.0, 5259.0, 3478.0, 2245.0, 3491.0, 3422.0, 6944.0, 2238.0, 2234.0, 3459.0, 2211.0, 2298.0],
      "WindowWidth": [15095.0, 15080.0, 8050.0, 5495.0, 7961.0, 7880.0, 11524.0, 5424.0, 5541.0, 5436.0, 8089.0, 11519.0, 5434.0, 5444.0, 5534.0, 5509.0, 7922.0, 5495.0, 5566.0, 5634.0, 5429.0, 14969.0, 8049.0, 5545.0, 8088.0, 7891.0, 5568.0, 5429.0, 5473.0, 5365.0, 11499.0, 5482.0, 7977.0, 5469.0, 5424.0, 11533.0, 5554.0, 5387.0, 7896.0, 5504.0, 5452.0, 14817.0, 5558.0, 5461.0, 5547.0, 11484.0, 7957.0, 5413.0, 5488.0, 7943.0, 5524.0, 7977.0, 7935.0, 5680.0, 11489.0, 7927.0, 5538.0, 8020.0, 5485.0, 5593.0, 7955.0, 14900.0, 7953.0, 5428.0, 5580.0, 5444.0, 5449.0, 11516.0, 7930.0, 7960.0, 5456.0, 5500.0, 5532.0, 5491.0, 7906.0, 5503.0, 5519.0, 5441.0, 7883.0, 7983.0, 5431.0, 14900.0, 7908.0, 5529.0, 5420.0, 7875.0, 8019.0, 5401.0, 7932.0, 5510.0, 5552.0, 5424.0, 8026.0, 5530.0, 5539.0, 5606.0, 11429.0, 7954.0, 5485.0, 7976.0, 7851.0, 14896.0, 5454.0, 5443.0, 7909.0, 5415.0, 5571.0]
    },
    "slices": {}
  }
}