{
  "AcquisitionMatrixPE": 110,
  "AcquisitionNumber": 1,
  "AcquisitionTime": "13:29:3.327500",
  "BandwidthPerPixelPhaseEncode": 12.987,
  "BaseResolution": 110,
  "BodyPartExamined": "BRAIN",
  "CoilCombinationMethod": "Sum of Squares",
  "ConsistencyInfo": "N4_VE11C_LATEST_20160120",
  "ConversionSoftware": "dcm2niix",
  "ConversionSoftwareVersion": "v1.0.20211006",
  "DerivedVendorReportedEchoSpacing": 0.000700001,
  "DeviceSerialNumber": "167006",
  "DiffusionScheme": "Monopolar",
  "DwellTime": 2.7e-06,
  "EchoTime": 0.0768,
  "EchoTrainLength": 83,
  "EffectiveEchoSpacing": 0.000700001,
  "FlipAngle": 78,
  "HeudiconvVersion": "0.5.3.post569+g418601f",
  "ImageComments": "Unaliased MB3/PE3/LB SENSE1",
  "ImageOrientationPatientDICOM": [1, 0, 0, 0, 0.956305, -0.292372],
  "ImageOrientationText": "Tra>Cor(-17.0)",
  "ImageType": [
    "ORIGINAL",
    "PRIMARY",
    "DIFFUSION",
    "NONE",
    "MB",
    "ND",
    "MOSAIC"
],
  "ImagingFrequency": 123.259,
  "InPlanePhaseEncodingDirectionDICOM": "COL",
  "InstitutionAddress": "Chemin Queen-Mary 4565,Montreal,District,CA,H3W 1W5",
  "InstitutionName": "IUGM",
  "InstitutionalDepartmentName": "Department",
  "MRAcquisitionType": "2D",
  "MagneticFieldStrength": 3,
  "Manufacturer": "Siemens",
  "ManufacturersModelName": "Prisma_fit",
  "MatrixCoilMode": "SENSE",
  "Modality": "MR",
  "MultibandAccelerationFactor": 3,
  "PartialFourier": 0.75,
  "PatientPosition": "HFS",
  "PercentPhaseFOV": 100,
  "PercentSampling": 100,
  "PhaseEncodingDirection": "j",
  "PhaseEncodingSteps": 83,
  "PhaseResolution": 1,
  "PixelBandwidth": 1685,
  "ProcedureStepDescription": "anat^generic",
  "ProtocolName": "dMRI_dir106_PA_test_cmrr",
  "PulseSequenceDetails": "%CustomerSeq%\\cmrr_mbep2d_diff",
  "ReceiveCoilActiveElements": "HC1-6",
  "ReceiveCoilName": "HeadNeck_64",
  "ReconMatrixPE": 110,
  "RepetitionTime": 2.243,
  "SAR": 0.116819,
  "ScanOptions": "PFP\\EXT",
  "ScanningSequence": "EP",
  "SequenceName": "ep_b5#1",
  "SequenceVariant": "SK\\SS",
  "SeriesDescription": "dMRI_dir106_PA_test_cmrr",
  "SeriesNumber": 11,
  "ShimSetting": [639, -7233, -8809, 724, 24, -31, 98, -8],
  "SliceThickness": 2,
  "SliceTiming": [0, 1.17, 0.1175, 1.2875, 0.235, 1.405, 0.35, 1.52, 0.4675, 1.6375, 0.585, 1.755, 0.7025, 1.8725, 0.82, 1.99, 0.935, 2.105, 1.0525, 0, 1.17, 0.1175, 1.2875, 0.235, 1.405, 0.35, 1.52, 0.4675, 1.6375, 0.585, 1.755, 0.7025, 1.8725, 0.82, 1.99, 0.935, 2.105, 1.0525, 0, 1.17, 0.1175, 1.2875, 0.235, 1.405, 0.35, 1.52, 0.4675, 1.6375, 0.585, 1.755, 0.7025, 1.8725, 0.82, 1.99, 0.935, 2.105, 1.0525],
  "SoftwareVersions": "syngo MR E11",
  "SpacingBetweenSlices": 2,
  "StationName": "MRC35049",
  "TotalReadoutTime": 0.0763001,
  "TxRefAmp": 204.869,
  "WipMemBlock": "912bab5a-44f6-44cb-9f45-7692dc9c8b9e||Sequence: R016 ve11c/master r/e634e98; Dec 19 2017 11:11:25 by eja",
  "dcmmeta_affine": [
    [-2.0, 0.0, 0.0, 112.0],
    [0.0, 1.9126094579696655, -0.5847434401512146, -77.58824157714844],
    [0.0, 0.5847434401512146, 1.9126094579696655, -65.72566223144531],
    [0.0, 0.0, 0.0, 1.0]
],
  "dcmmeta_reorient_transform": [
    [0.0, -1.0, 0.0, 109.0],
    [1.0, 0.0, 0.0, 0.0],
    [0.0, 0.0, 1.0, 0.0],
    [0.0, 0.0, 0.0, 1.0]
],
  "dcmmeta_shape": [110, 110, 57, 107],
  "dcmmeta_slice_dim": 2,
  "dcmmeta_version": 0.6,
  "global": {
    "const": {
      "AcquisitionMatrix": [110, 0, 0, 110],
      "AngioFlag": "N",
      "BitsAllocated": 16,
      "BitsStored": 16,
      "BodyPartExamined": "BRAIN",
      "CardiacNumberOfImages": 1,
      "Columns": 880,
      "EchoNumbers": 1,
      "EchoTime": 76.8,
      "EchoTrainLength": 83,
      "FlipAngle": 78.0,
      "HighBit": 15,
      "ImageOrientationPatient": [1.0, 0.0, 0.0, 0.0, 0.95630475535632, -0.2923717067072],
      "ImagePositionPatient": [-882.0, -867.2408593504, 223.13758102832],
      "ImageType": [
        "ORIGINAL",
        "PRIMARY",
        "DIFFUSION",
        "NONE",
        "MB",
        "ND",
        "MOSAIC"
],
      "ImagedNucleus": "1H",
      "ImagingFrequency": 123.258874,
      "InPlanePhaseEncodingDirection": "COL",
      "MRAcquisitionType": "2D",
      "MagneticFieldStrength": 3.0,
      "Manufacturer": "SIEMENS",
      "ManufacturerModelName": "Prisma_fit",
      "Modality": "MR",
      "NominalInterval": 0,
      "NumberOfAverages": 1.0,
      "NumberOfPhaseEncodingSteps": 83,
      "PercentPhaseFieldOfView": 100.0,
      "PercentSampling": 100.0,
      "PerformedProcedureStepStartTime": "130056.307000",
      "PhotometricInterpretation": "MONOCHROME2",
      "PixelBandwidth": 1685.0,
      "PixelRepresentation": 0,
      "PixelSpacing": [2.0, 2.0],
      "ProtocolName": "dMRI_dir106_PA_test_cmrr",
      "RepetitionTime": 2243.0,
      "Rows": 880,
      "SAR": 0.1168185030231,
      "SamplesPerPixel": 1,
      "ScanOptions": [
        "PFP",
        "EXT"
],
      "ScanningSequence": "EP",
      "SequenceVariant": [
        "SK",
        "SS"
],
      "SeriesDescription": "dMRI_dir106_PA_test_cmrr",
      "SeriesNumber": 11,
      "SeriesTime": "132949.901000",
      "SliceLocation": -40.169160338415,
      "SliceThickness": 2.0,
      "SmallestImagePixelValue": 0,
      "SoftwareVersions": "syngo MR E11",
      "SpacingBetweenSlices": 1.9999999987675,
      "SpecificCharacterSet": "ISO_IR 100",
      "StudyID": "1",
      "StudyTime": "130056.150000",
      "TransmitCoilName": "Body",
      "VariableFlipAngleFlag": "N",
      "WindowCenterWidthExplanation": "Algo1",
      "dBdt": 0.0},
    "slices": {}
  },
  "time": {
    "samples": {
      "AcquisitionNumber": [1, 2, 3, 4, 5, 6, 7, 8, 9, 10, 11, 12, 13, 14, 15, 16, 17, 18, 19, 20, 21, 22, 23, 24, 25, 26, 27, 28, 29, 30, 31, 32, 33, 34, 35, 36, 37, 38, 39, 40, 41, 42, 43, 44, 45, 46, 47, 48, 49, 50, 51, 52, 53, 54, 55, 56, 57, 58, 59, 60, 61, 62, 63, 64, 65, 66, 67, 68, 69, 70, 71, 72, 73, 74, 75, 76, 77, 78, 79, 80, 81, 82, 83, 84, 85, 86, 87, 88, 89, 90, 91, 92, 93, 94, 95, 96, 97, 98, 99, 100, 101, 102, 103, 104, 105, 106, 107],
      "AcquisitionTime": ["132903.327500", "132905.570000", "132907.812500", "132910.057500", "132912.300000", "132914.542500", "132916.785000", "132919.027500", "132921.272500", "132923.515000", "132925.757500", "132928.000000", "132930.242500", "132932.487500", "132934.730000", "132936.972500", "132939.215000", "132941.457500", "132943.702500", "132945.945000", "132948.187500", "132950.430000", "132952.672500", "132954.917500", "132957.160000", "132959.402500", "133001.645000", "133003.887500", "133006.132500", "133008.375000", "133010.617500", "133012.860000", "133015.102500", "133017.347500", "133019.590000", "133021.832500", "133024.075000", "133026.317500", "133028.562500", "133030.805000", "133033.047500", "133035.290000", "133037.532500", "133039.777500", "133042.020000", "133044.262500", "133046.505000", "133048.747500", "133050.992500", "133053.235000", "133055.477500", "133057.720000", "133059.962500", "133102.207500", "133104.450000", "133106.692500", "133108.935000", "133111.177500", "133113.422500", "133115.665000", "133117.907500", "133120.150000", "133122.392500", "133124.637500", "133126.880000", "133129.122500", "133131.365000", "133133.607500", "133135.852500", "133138.095000", "133140.337500", "133142.580000", "133144.822500", "133147.067500", "133149.310000", "133151.552500", "133153.795000", "133156.037500", "133158.282500", "133200.525000", "133202.767500", "133205.010000", "133207.252500", "133209.497500", "133211.740000", "133213.982500", "133216.225000", "133218.467500", "133220.712500", "133222.955000", "133225.197500", "133227.440000", "133229.682500", "133231.927500", "133234.170000", "133236.412500", "133238.655000", "133240.897500", "133243.142500", "133245.385000", "133247.627500", "133249.870000", "133252.112500", "133254.357500", "133256.600000", "133258.842500", "133301.085000"],
      "ContentTime": ["132949.904000", "132949.917000", "132949.920000", "132949.923000", "132949.926000", "132949.929000", "132949.932000", "132949.935000", "132949.939000", "132949.942000", "132949.945000", "132949.948000", "132949.951000", "132949.954000", "132949.957000", "132949.960000", "132949.964000", "132949.970000", "132949.973000", "132949.976000", "133049.869000", "133049.873000", "133049.876000", "133049.879000", "133049.882000", "133049.885000", "133049.888000", "133049.891000", "133049.894000", "133049.898000", "133049.901000", "133049.904000", "133049.907000", "133049.910000", "133049.913000", "133049.916000", "133049.919000", "133049.923000", "133049.926000", "133049.929000", "133049.932000", "133049.939000", "133049.942000", "133049.946000", "133049.949000", "133049.952000", "133049.955000", "133149.869000", "133149.872000", "133149.876000", "133149.879000", "133149.882000", "133149.885000", "133149.888000", "133149.891000", "133149.901000", "133149.904000", "133149.908000", "133149.911000", "133149.914000", "133149.917000", "133149.920000", "133149.923000", "133149.926000", "133149.929000", "133149.932000", "133149.936000", "133149.939000", "133149.942000", "133149.945000", "133149.948000", "133149.951000", "133149.954000", "133249.870000", "133249.873000", "133249.877000", "133249.880000", "133249.883000", "133249.886000", "133249.889000", "133249.901000", "133249.904000", "133249.907000", "133249.911000", "133249.914000", "133249.917000", "133249.920000", "133249.923000", "133249.926000", "133249.929000", "133249.932000", "133249.936000", "133249.939000", "133249.942000", "133249.945000", "133249.948000", "133249.951000", "133249.954000", "133249.957000", "133249.960000", "133306.012000", "133306.016000", "133306.019000", "133306.027000", "133306.030000", "133306.033000", "133306.037000"],
      "InstanceCreationTime": ["132949.904000", "132949.917000", "132949.920000", "132949.923000", "132949.926000", "132949.929000", "132949.932000", "132949.935000", "132949.939000", "132949.942000", "132949.945000", "132949.948000", "132949.951000", "132949.954000", "132949.957000", "132949.960000", "132949.964000", "132949.970000", "132949.973000", "132949.976000", "133049.869000", "133049.873000", "133049.876000", "133049.879000", "133049.882000", "133049.885000", "133049.888000", "133049.891000", "133049.894000", "133049.898000", "133049.901000", "133049.904000", "133049.907000", "133049.910000", "133049.913000", "133049.916000", "133049.919000", "133049.923000", "133049.926000", "133049.929000", "133049.932000", "133049.939000", "133049.942000", "133049.946000", "133049.949000", "133049.952000", "133049.955000", "133149.869000", "133149.872000", "133149.876000", "133149.879000", "133149.882000", "133149.885000", "133149.888000", "133149.891000", "133149.901000", "133149.904000", "133149.908000", "133149.911000", "133149.914000", "133149.917000", "133149.920000", "133149.923000", "133149.926000", "133149.929000", "133149.932000", "133149.936000", "133149.939000", "133149.942000", "133149.945000", "133149.948000", "133149.951000", "133149.954000", "133249.870000", "133249.873000", "133249.877000", "133249.880000", "133249.883000", "133249.886000", "133249.889000", "133249.901000", "133249.904000", "133249.907000", "133249.911000", "133249.914000", "133249.917000", "133249.920000", "133249.923000", "133249.926000", "133249.929000", "133249.932000", "133249.936000", "133249.939000", "133249.942000", "133249.945000", "133249.948000", "133249.951000", "133249.954000", "133249.957000", "133249.960000", "133306.012000", "133306.016000", "133306.019000", "133306.027000", "133306.030000", "133306.033000", "133306.037000"],
      "InstanceNumber": [1, 2, 3, 4, 5, 6, 7, 8, 9, 10, 11, 12, 13, 14, 15, 16, 17, 18, 19, 20, 21, 22, 23, 24, 25, 26, 27, 28, 29, 30, 31, 32, 33, 34, 35, 36, 37, 38, 39, 40, 41, 42, 43, 44, 45, 46, 47, 48, 49, 50, 51, 52, 53, 54, 55, 56, 57, 58, 59, 60, 61, 62, 63, 64, 65, 66, 67, 68, 69, 70, 71, 72, 73, 74, 75, 76, 77, 78, 79, 80, 81, 82, 83, 84, 85, 86, 87, 88, 89, 90, 91, 92, 93, 94, 95, 96, 97, 98, 99, 100, 101, 102, 103, 104, 105, 106, 107],
      "LargestImagePixelValue": [47134, 47113, 19709, 10880, 20919, 19761, 34946, 12155, 10379, 10261, 20074, 34564, 10812, 10309, 10986, 10890, 19299, 10405, 11654, 10942, 12142, 50274, 21625, 11809, 20581, 21546, 10866, 10236, 10396, 11671, 36265, 11204, 21029, 11033, 11983, 37852, 12321, 12624, 19690, 10946, 10091, 50940, 11511, 10454, 11023, 37150, 21849, 10280, 10470, 21296, 11036, 20640, 20277, 11096, 36550, 19771, 10597, 20920, 11390, 10392, 19356, 52298, 21044, 11386, 10907, 11576, 11270, 36854, 20337, 20727, 11010, 11873, 12153, 10809, 20526, 11863, 9468, 12600, 21224, 21309, 12483, 48866, 20632, 12030, 10712, 22816, 20888, 10771, 20097, 11348, 11982, 11691, 21446, 11385, 10358, 10806, 37096, 22079, 10952, 21173, 22285, 65535, 10936, 12029, 20719, 11627, 11236],
      "SequenceName": [
 "ep_b5#1",
 "ep_b5#1",
 "ep_b1000#2",
 "ep_b2005#3",
 "ep_b1000#4",
 "ep_b995#5",
 "ep_b300#6",
 "ep_b1995#7",
 "ep_b2000#8",
 "ep_b2000#9",
 "ep_b995#10",
 "ep_b300#11",
 "ep_b1990#12",
 "ep_b2005#13",
 "ep_b2005#14",
 "ep_b1995#15",
 "ep_b1000#16",
 "ep_b2000#17",
 "ep_b2005#18",
 "ep_b1995#19",
 "ep_b1995#20",
 "ep_b5#21",
 "ep_b995#22",
 "ep_b1990#23",
 "ep_b995#24",
 "ep_b1000#25",
 "ep_b2000#26",
 "ep_b1995#27",
 "ep_b1990#28",
 "ep_b1995#29",
 "ep_b300#30",
 "ep_b2000#31",
 "ep_b1005#32",
 "ep_b2000#33",
 "ep_b2000#34",
 "ep_b300#35",
 "ep_b2005#36",
 "ep_b1995#37",
 "ep_b1005#38",
 "ep_b2000#39",
 "ep_b2005#40",
 "ep_b5#41",
 "ep_b1995#42",
 "ep_b2005#43",
 "ep_b1995#44",
 "ep_b305#45",
 "ep_b1005#46",
 "ep_b2005#47",
 "ep_b2000#48",
 "ep_b1005#49",
 "ep_b2000#50",
 "ep_b995#51",
 "ep_b1000#52",
 "ep_b1995#53",
 "ep_b300#54",
 "ep_b1000#55",
 "ep_b2000#56",
 "ep_b1005#57",
 "ep_b2010#58",
 "ep_b2000#59",
 "ep_b1000#60",
 "ep_b5#61",
 "ep_b1000#62",
 "ep_b1995#63",
 "ep_b1995#64",
 "ep_b2005#65",
 "ep_b2010#66",
 "ep_b300#67",
 "ep_b1005#68",
 "ep_b1000#69",
 "ep_b2000#70",
 "ep_b1995#71",
 "ep_b2005#72",
 "ep_b2005#73",
 "ep_b1005#74",
 "ep_b2000#75",
 "ep_b2005#76",
 "ep_b2000#77",
 "ep_b1005#78",
 "ep_b1000#79",
 "ep_b1995#80",
 "ep_b5#81",
 "ep_b995#82",
 "ep_b2010#83",
 "ep_b2000#84",
 "ep_b995#85",
 "ep_b1000#86",
 "ep_b1995#87",
 "ep_b1005#88",
 "ep_b2005#89",
 "ep_b2005#90",
 "ep_b1995#91",
 "ep_b1005#92",
 "ep_b2005#93",
 "ep_b2000#94",
 "ep_b1995#95",
 "ep_b300#96",
 "ep_b995#97",
 "ep_b2000#98",
 "ep_b1000#99",
 "ep_b995#100",
 "ep_b5#101",
 "ep_b2005#102",
 "ep_b2005#103",
 "ep_b1000#104",
 "ep_b2005#105",
 "ep_b1995#106"
],
      "TriggerTime": [12837.5, 15080.0, 17322.5, 19565.0, 21810.0, 24052.5, 26295.0, 28537.5, 30780.0, 33025.0, 35267.5, 37510.0, 39752.5, 41995.0, 44240.0, 46482.5, 48725.0, 50967.5, 53210.0, 55455.0, 57697.5, 59940.0, 62182.5, 64425.0, 66670.0, 68912.5, 71155.0, 73397.5, 75640.0, 77885.0, 80127.5, 82370.0, 84612.5, 86855.0, 89100.0, 91342.5, 93585.0, 95827.5, 98070.0, 100315.0, 102557.5, 104800.0, 107042.5, 109285.0, 111530.0, 113772.5, 116015.0, 118257.5, 120500.0, 122745.0, 124987.5, 127230.0, 129472.5, 131715.0, 133960.0, 136202.5, 138445.0, 140687.5, 142930.0, 145175.0, 147417.5, 149660.0, 151902.5, 154145.0, 156390.0, 158632.5, 160875.0, 163117.5, 165360.0, 167605.0, 169847.5, 172090.0, 174332.5, 176575.0, 178820.0, 181062.5, 183305.0, 185547.5, 187790.0, 190035.0, 192277.5, 194520.0, 196762.5, 199005.0, 201250.0, 203492.5, 205735.0, 207977.5, 210220.0, 212465.0, 214707.5, 216950.0, 219192.5, 221435.0, 223680.0, 225922.5, 228165.0, 230407.5, 232650.0, 234895.0, 237137.5, 239380.0, 241622.5, 243865.0, 246110.0, 248352.5, 250595.0],
      "WindowCenter": [7194.0, 7164.0, 3590.0, 2356.0, 3624.0, 3552.0, 5413.0, 2357.0, 2345.0, 2339.0, 3602.0, 5408.0, 2302.0, 2268.0, 2386.0, 2357.0, 3583.0, 2316.0, 2371.0, 2366.0, 2310.0, 7078.0, 3607.0, 2370.0, 3607.0, 3602.0, 2349.0, 2324.0, 2273.0, 2297.0, 5375.0, 2310.0, 3594.0, 2356.0, 2334.0, 5431.0, 2389.0, 2339.0, 3526.0, 2369.0, 2289.0, 7148.0, 2389.0, 2322.0, 2359.0, 5372.0, 3600.0, 2271.0, 2350.0, 3546.0, 2370.0, 3590.0, 3572.0, 2376.0, 5391.0, 3555.0, 2321.0, 3581.0, 2329.0, 2338.0, 3551.0, 7144.0, 3600.0, 2314.0, 2341.0, 2339.0, 2325.0, 5467.0, 3544.0, 3611.0, 2319.0, 2397.0, 2399.0, 2351.0, 3526.0, 2346.0, 2342.0, 2366.0, 3531.0, 3605.0, 2368.0, 7107.0, 3552.0, 2359.0, 2319.0, 3622.0, 3595.0, 2302.0, 3550.0, 2343.0, 2370.0, 2305.0, 3576.0, 2348.0, 2341.0, 2386.0, 5443.0, 3624.0, 2359.0, 3618.0, 3620.0, 7196.0, 2293.0, 2325.0, 3590.0, 2307.0, 2386.0],
      "WindowWidth": [15445.0, 15379.0, 8235.0, 5744.0, 8308.0, 8168.0, 11829.0, 5739.0, 5711.0, 5699.0, 8278.0, 11830.0, 5627.0, 5549.0, 5804.0, 5748.0, 8233.0, 5667.0, 5767.0, 5766.0, 5639.0, 15186.0, 8270.0, 5765.0, 8271.0, 8257.0, 5726.0, 5657.0, 5576.0, 5611.0, 11754.0, 5629.0, 8265.0, 5741.0, 5684.0, 11862.0, 5808.0, 5697.0, 8116.0, 5766.0, 5581.0, 15324.0, 5812.0, 5647.0, 5748.0, 11745.0, 8278.0, 5558.0, 5709.0, 8165.0, 5769.0, 8256.0, 8213.0, 5782.0, 11792.0, 8179.0, 5675.0, 8234.0, 5682.0, 5687.0, 8153.0, 15306.0, 8259.0, 5654.0, 5707.0, 5706.0, 5676.0, 11926.0, 8145.0, 8284.0, 5645.0, 5820.0, 5829.0, 5743.0, 8126.0, 5719.0, 5719.0, 5749.0, 8127.0, 8256.0, 5756.0, 15250.0, 8174.0, 5747.0, 5669.0, 8304.0, 8242.0, 5631.0, 8176.0, 5720.0, 5772.0, 5622.0, 8233.0, 5732.0, 5696.0, 5803.0, 11885.0, 8312.0, 5739.0, 8299.0, 8290.0, 15458.0, 5589.0, 5674.0, 8233.0, 5621.0, 5803.0]
    },
    "slices": {}
  }
}