{
  "AcquisitionMatrixPE": 110,
  "AcquisitionNumber": 1,
  "AcquisitionTime": "13:26:28.565000",
  "BandwidthPerPixelPhaseEncode": 12.987,
  "BaseResolution": 110,
  "BodyPartExamined": "BRAIN",
  "ConsistencyInfo": "N4_VE11C_LATEST_20160120",
  "ConversionSoftware": "dcm2niix",
  "ConversionSoftwareVersion": "v1.0.20190902",
  "DerivedVendorReportedEchoSpacing": 0.000700001,
  "DeviceSerialNumber": "167006",
  "DiffusionScheme": "Monopolar",
  "DwellTime": 2.7e-06,
  "EchoTime": 0.0816,
  "EchoTrainLength": 83,
  "EffectiveEchoSpacing": 0.000700001,
  "FlipAngle": 78,
  "ImageComments": "Unaliased_MB3_PE3_LB_SENSE1",
  "ImageOrientationPatientDICOM": [1, 0, 0, 0, 0.829038, -0.559193],
  "ImageType": [
    "ORIGINAL",
    "PRIMARY",
    "DIFFUSION",
    "NONE",
    "MB",
    "ND",
    "MOSAIC"
],
  "ImagingFrequency": 123.259,
  "InPlanePhaseEncodingDirectionDICOM": "COL",
  "InstitutionAddress": "Chemin_Queen-Mary_4565_Montreal_District_CA_H3W_1W5",
  "InstitutionName": "IUGM",
  "InstitutionalDepartmentName": "Department",
  "MRAcquisitionType": "2D",
  "MagneticFieldStrength": 3,
  "Manufacturer": "Siemens",
  "ManufacturersModelName": "Prisma_fit",
  "Modality": "MR",
  "MultibandAccelerationFactor": 3,
  "PartialFourier": 0.75,
  "PatientPosition": "HFS",
  "PercentPhaseFOV": 100,
  "PhaseEncodingDirection": "j-",
  "PhaseEncodingSteps": 83,
  "PhaseResolution": 1,
  "PixelBandwidth": 1685,
  "ProcedureStepDescription": "hcptrt_generic",
  "ProtocolName": "dMRI_dir98_AP_test_cmrr",
  "PulseSequenceDetails": "%CustomerSeq%_cmrr_mbep2d_diff",
  "ReceiveCoilActiveElements": "HC1-7",
  "ReceiveCoilName": "HeadNeck_64",
  "ReconMatrixPE": 110,
  "RepetitionTime": 2.334,
  "SAR": 0.128679,
  "ScanOptions": "PFP_EXT",
  "ScanningSequence": "EP",
  "SequenceName": "ep_b5#1",
  "SequenceVariant": "SK_SS",
  "SeriesDescription": "dMRI_dir98_AP_test_cmrr",
  "SeriesNumber": 7,
  "ShimSetting": [629, -7188, -8864, 457, -33, -161, 43, -22],
  "SliceThickness": 2,
  "SliceTiming": [0, 1.2175, 0.1225, 1.34, 0.245, 1.4625, 0.365, 1.5825, 0.4875, 1.705, 0.61, 1.8275, 0.73, 1.9475, 0.8525, 2.07, 0.975, 2.1925, 1.095, 0, 1.2175, 0.1225, 1.34, 0.245, 1.4625, 0.365, 1.5825, 0.4875, 1.705, 0.61, 1.8275, 0.73, 1.9475, 0.8525, 2.07, 0.975, 2.1925, 1.095, 0, 1.2175, 0.1225, 1.34, 0.245, 1.4625, 0.365, 1.5825, 0.4875, 1.705, 0.61, 1.8275, 0.73, 1.9475, 0.8525, 2.07, 0.975, 2.1925, 1.095],
  "SoftwareVersions": "syngo_MR_E11",
  "SpacingBetweenSlices": 2,
  "StationName": "MRC35049",
  "TotalReadoutTime": 0.0763001,
  "TxRefAmp": 247.246,
  "WipMemBlock": "b4115816-3db6-4943-a700-02e5ef5849ff||Sequence: R016 ve11c/master r/e634e98; Dec 19 2017 11:11:25 by eja",
  "dcmmeta_affine": [
    [-2.0, 0.0, 0.0, 109.49686431884766],
    [0.0, 1.6580750942230225, -1.1183857917785645, -62.70862579345703],
    [0.0, 1.1183857917785645, 1.658075213432312, -109.24671936035156],
    [0.0, 0.0, 0.0, 1.0]
],
  "dcmmeta_reorient_transform": [
    [0.0, -1.0, 0.0, 109.0],
    [1.0, 0.0, 0.0, 0.0],
    [0.0, 0.0, 1.0, 0.0],
    [0.0, 0.0, 0.0, 1.0]
],
  "dcmmeta_shape": [110, 110, 57, 99],
  "dcmmeta_slice_dim": 2,
  "dcmmeta_version": 0.6,
  "global": {
    "const": {
      "AcquisitionMatrix": [110, 0, 0, 110],
      "AngioFlag": "N",
      "BitsAllocated": 16,
      "BitsStored": 16,
      "BodyPartExamined": "BRAIN",
      "CardiacNumberOfImages": 1,
      "Columns": 880,
      "EchoNumbers": 1,
      "EchoTime": 81.6,
      "EchoTrainLength": 83,
      "FlipAngle": 78.0,
      "HighBit": 15,
      "ImageOrientationPatient": [1.0, 0.0, 0.0, 0.0, 0.82903757600882, -0.5591928983503],
      "ImagePositionPatient": [-879.49686384201, -756.38049952021, 443.23586489765],
      "ImageType": [
        "ORIGINAL",
        "PRIMARY",
        "DIFFUSION",
        "NONE",
        "MB",
        "ND",
        "MOSAIC"
],
      "ImagedNucleus": "1H",
      "ImagingFrequency": 123.259398,
      "InPlanePhaseEncodingDirection": "COL",
      "MRAcquisitionType": "2D",
      "MagneticFieldStrength": 3.0,
      "Manufacturer": "SIEMENS",
      "ManufacturerModelName": "Prisma_fit",
      "Modality": "MR",
      "NominalInterval": 0,
      "NumberOfAverages": 1.0,
      "NumberOfPhaseEncodingSteps": 83,
      "PercentPhaseFieldOfView": 100.0,
      "PercentSampling": 100.0,
      "PerformedProcedureStepStartTime": "131048.233000",
      "PhotometricInterpretation": "MONOCHROME2",
      "PixelBandwidth": 1685.0,
      "PixelRepresentation": 0,
      "PixelSpacing": [2.0, 2.0],
      "ProtocolName": "dMRI_dir98_AP_test_cmrr",
      "RepetitionTime": 2334.0,
      "Rows": 880,
      "SAR": 0.12867922937861,
      "SamplesPerPixel": 1,
      "ScanOptions": [
        "PFP",
        "EXT"
],
      "ScanningSequence": "EP",
      "SequenceVariant": [
        "SK",
        "SS"
],
      "SeriesDescription": "dMRI_dir98_AP_test_cmrr",
      "SeriesNumber": 7,
      "SeriesTime": "132731.249000",
      "SliceLocation": -55.50341674745,
      "SliceThickness": 2.0,
      "SmallestImagePixelValue": 0,
      "SoftwareVersions": "syngo MR E11",
      "SpacingBetweenSlices": 2.0000000530903,
      "SpecificCharacterSet": "ISO_IR 100",
      "StudyID": "1",
      "StudyTime": "131048.127000",
      "TransmitCoilName": "Body",
      "VariableFlipAngleFlag": "N",
      "WindowCenterWidthExplanation": "Algo1",
      "dBdt": 0.0},
    "slices": {}
  },
  "time": {
    "samples": {
      "AcquisitionNumber": [1, 2, 3, 4, 5, 6, 7, 8, 9, 10, 11, 12, 13, 14, 15, 16, 17, 18, 19, 20, 21, 22, 23, 24, 25, 26, 27, 28, 29, 30, 31, 32, 33, 34, 35, 36, 37, 38, 39, 40, 41, 42, 43, 44, 45, 46, 47, 48, 49, 50, 51, 52, 53, 54, 55, 56, 57, 58, 59, 60, 61, 62, 63, 64, 65, 66, 67, 68, 69, 70, 71, 72, 73, 74, 75, 76, 77, 78, 79, 80, 81, 82, 83, 84, 85, 86, 87, 88, 89, 90, 91, 92, 93, 94, 95, 96, 97, 98, 99],
      "AcquisitionTime": ["132628.565000", "132630.900000", "132633.232500", "132635.567500", "132637.900000", "132640.235000", "132642.570000", "132644.902500", "132647.237500", "132649.570000", "132651.905000", "132654.240000", "132656.572500", "132658.907500", "132701.240000", "132703.575000", "132705.910000", "132708.242500", "132710.577500", "132712.910000", "132715.245000", "132717.580000", "132719.912500", "132722.247500", "132724.580000", "132726.915000", "132729.250000", "132731.582500", "132733.917500", "132736.250000", "132738.585000", "132740.920000", "132743.252500", "132745.587500", "132747.920000", "132750.255000", "132752.590000", "132754.922500", "132757.257500", "132759.590000", "132801.925000", "132804.260000", "132806.592500", "132808.927500", "132811.260000", "132813.595000", "132815.930000", "132818.262500", "132820.597500", "132822.930000", "132825.265000", "132827.600000", "132829.932500", "132832.267500", "132834.600000", "132836.935000", "132839.270000", "132841.602500", "132843.937500", "132846.270000", "132848.605000", "132850.940000", "132853.272500", "132855.607500", "132857.940000", "132900.275000", "132902.610000", "132904.942500", "132907.277500", "132909.610000", "132911.945000", "132914.280000", "132916.612500", "132918.947500", "132921.280000", "132923.615000", "132925.950000", "132928.282500", "132930.617500", "132932.950000", "132935.285000", "132937.620000", "132939.952500", "132942.287500", "132944.620000", "132946.955000", "132949.290000", "132951.622500", "132953.957500", "132956.290000", "132958.625000", "133000.960000", "133003.292500", "133005.627500", "133007.960000", "133010.295000", "133012.630000", "133014.962500", "133017.297500"],
      "ContentTime": ["132731.252000", "132731.256000", "132731.259000", "132731.262000", "132731.265000", "132731.269000", "132731.279000", "132731.282000", "132731.285000", "132731.289000", "132731.292000", "132731.295000", "132731.298000", "132731.301000", "132731.304000", "132731.309000", "132731.312000", "132731.316000", "132731.319000", "132731.322000", "132731.325000", "132731.328000", "132731.331000", "132731.335000", "132731.338000", "132731.341000", "132831.225000", "132831.228000", "132831.231000", "132831.234000", "132831.238000", "132831.249000", "132831.252000", "132831.256000", "132831.259000", "132831.262000", "132831.265000", "132831.268000", "132831.271000", "132831.274000", "132831.277000", "132831.280000", "132831.283000", "132831.287000", "132831.290000", "132831.293000", "132831.296000", "132831.299000", "132831.302000", "132831.305000", "132831.308000", "132831.311000", "132931.225000", "132931.229000", "132931.232000", "132931.235000", "132931.238000", "132931.241000", "132931.244000", "132931.247000", "132931.250000", "132931.253000", "132931.256000", "132931.260000", "132931.263000", "132931.266000", "132931.269000", "132931.272000", "132931.275000", "132931.278000", "132931.281000", "132931.285000", "132931.288000", "132931.291000", "132931.294000", "132931.297000", "132931.300000", "132931.303000", "133022.144000", "133022.148000", "133022.152000", "133022.155000", "133022.158000", "133022.161000", "133022.164000", "133022.167000", "133022.171000", "133022.174000", "133022.177000", "133022.180000", "133022.184000", "133022.188000", "133022.192000", "133022.195000", "133022.199000", "133022.202000", "133022.205000", "133022.208000", "133022.211000"],
      "InstanceCreationTime": ["132731.252000", "132731.256000", "132731.259000", "132731.262000", "132731.265000", "132731.269000", "132731.279000", "132731.282000", "132731.285000", "132731.289000", "132731.292000", "132731.295000", "132731.298000", "132731.301000", "132731.304000", "132731.309000", "132731.312000", "132731.316000", "132731.319000", "132731.322000", "132731.325000", "132731.328000", "132731.331000", "132731.335000", "132731.338000", "132731.341000", "132831.225000", "132831.228000", "132831.231000", "132831.234000", "132831.238000", "132831.249000", "132831.252000", "132831.256000", "132831.259000", "132831.262000", "132831.265000", "132831.268000", "132831.271000", "132831.274000", "132831.277000", "132831.280000", "132831.283000", "132831.287000", "132831.290000", "132831.293000", "132831.296000", "132831.299000", "132831.302000", "132831.305000", "132831.308000", "132831.311000", "132931.225000", "132931.229000", "132931.232000", "132931.235000", "132931.238000", "132931.241000", "132931.244000", "132931.247000", "132931.250000", "132931.253000", "132931.256000", "132931.260000", "132931.263000", "132931.266000", "132931.269000", "132931.272000", "132931.275000", "132931.278000", "132931.281000", "132931.285000", "132931.288000", "132931.291000", "132931.294000", "132931.297000", "132931.300000", "132931.303000", "133022.144000", "133022.148000", "133022.152000", "133022.155000", "133022.158000", "133022.161000", "133022.164000", "133022.167000", "133022.171000", "133022.174000", "133022.177000", "133022.180000", "133022.184000", "133022.188000", "133022.192000", "133022.195000", "133022.199000", "133022.202000", "133022.205000", "133022.208000", "133022.211000"],
      "InstanceNumber": [1, 2, 3, 4, 5, 6, 7, 8, 9, 10, 11, 12, 13, 14, 15, 16, 17, 18, 19, 20, 21, 22, 23, 24, 25, 26, 27, 28, 29, 30, 31, 32, 33, 34, 35, 36, 37, 38, 39, 40, 41, 42, 43, 44, 45, 46, 47, 48, 49, 50, 51, 52, 53, 54, 55, 56, 57, 58, 59, 60, 61, 62, 63, 64, 65, 66, 67, 68, 69, 70, 71, 72, 73, 74, 75, 76, 77, 78, 79, 80, 81, 82, 83, 84, 85, 86, 87, 88, 89, 90, 91, 92, 93, 94, 95, 96, 97, 98, 99],
      "LargestImagePixelValue": [63669, 63000, 10464, 4623, 9705, 4287, 9721, 6246, 11308, 5843, 10974, 4078, 9131, 6061, 10473, 6310, 10112, 65535, 5232, 10312, 4735, 9515, 5327, 12492, 4047, 10326, 5241, 9143, 5236, 10049, 5799, 10587, 4063, 56847, 9534, 5547, 11041, 6405, 9734, 4008, 9059, 5004, 9775, 4419, 11062, 4982, 10437, 5683, 10813, 60181, 5929, 8588, 5152, 11165, 6204, 10529, 4289, 10212, 5575, 11595, 5990, 11145, 6060, 9137, 4744, 61501, 10296, 5612, 10169, 4447, 9344, 5124, 9737, 6271, 10807, 5491, 10560, 3956, 9267, 5518, 9514, 55914, 4837, 10709, 4717, 9971, 6071, 10724, 4414, 10703, 6055, 10211, 4507, 9143, 5608, 9612, 5503, 11162, 3975],
      "SequenceName": [
 "ep_b5#1",
 "ep_b5#1",
 "ep_b1490#2",
 "ep_b2990#3",
 "ep_b1495#4",
 "ep_b3005#5",
 "ep_b1505#6",
 "ep_b2985#7",
 "ep_b1500#8",
 "ep_b3005#9",
 "ep_b1490#10",
 "ep_b2990#11",
 "ep_b1495#12",
 "ep_b2990#13",
 "ep_b1500#14",
 "ep_b2985#15",
 "ep_b1500#16",
 "ep_b5#17",
 "ep_b3000#18",
 "ep_b1495#19",
 "ep_b3000#20",
 "ep_b1495#21",
 "ep_b2995#22",
 "ep_b1495#23",
 "ep_b3000#24",
 "ep_b1490#25",
 "ep_b2985#26",
 "ep_b1505#27",
 "ep_b2990#28",
 "ep_b1495#29",
 "ep_b3000#30",
 "ep_b1490#31",
 "ep_b3000#32",
 "ep_b5#33",
 "ep_b1505#34",
 "ep_b3000#35",
 "ep_b1490#36",
 "ep_b2985#37",
 "ep_b1495#38",
 "ep_b3000#39",
 "ep_b1500#40",
 "ep_b2995#41",
 "ep_b1505#42",
 "ep_b2990#43",
 "ep_b1495#44",
 "ep_b3000#45",
 "ep_b1495#46",
 "ep_b3000#47",
 "ep_b1490#48",
 "ep_b5#49",
 "ep_b3000#50",
 "ep_b1495#51",
 "ep_b2995#52",
 "ep_b1505#53",
 "ep_b2995#54",
 "ep_b1490#55",
 "ep_b2990#56",
 "ep_b1495#57",
 "ep_b3000#58",
 "ep_b1500#59",
 "ep_b3000#60",
 "ep_b1500#61",
 "ep_b2985#62",
 "ep_b1500#63",
 "ep_b2990#64",
 "ep_b5#65",
 "ep_b1505#66",
 "ep_b3000#67",
 "ep_b1495#68",
 "ep_b3000#69",
 "ep_b1505#70",
 "ep_b3005#71",
 "ep_b1500#72",
 "ep_b3005#73",
 "ep_b1495#74",
 "ep_b2990#75",
 "ep_b1495#76",
 "ep_b2995#77",
 "ep_b1500#78",
 "ep_b3000#79",
 "ep_b1490#80",
 "ep_b5#81",
 "ep_b2990#82",
 "ep_b1500#83",
 "ep_b2985#84",
 "ep_b1495#85",
 "ep_b2995#86",
 "ep_b1495#87",
 "ep_b2990#88",
 "ep_b1490#89",
 "ep_b2985#90",
 "ep_b1495#91",
 "ep_b2995#92",
 "ep_b1495#93",
 "ep_b3005#94",
 "ep_b1500#95",
 "ep_b2990#96",
 "ep_b1500#97",
 "ep_b2995#98"
],
      "TriggerTime": [13297.5, 15632.5, 17965.0, 20300.0, 22632.5, 24967.5, 27302.5, 29635.0, 31970.0, 34302.5, 36637.5, 38972.5, 41305.0, 43640.0, 45972.5, 48307.5, 50642.5, 52975.0, 55310.0, 57642.5, 59977.5, 62312.5, 64645.0, 66980.0, 69312.5, 71647.5, 73982.5, 76315.0, 78650.0, 80982.5, 83317.5, 85652.5, 87985.0, 90320.0, 92652.5, 94987.5, 97322.5, 99655.0, 101990.0, 104322.5, 106657.5, 108992.5, 111325.0, 113660.0, 115992.5, 118327.5, 120662.5, 122995.0, 125330.0, 127662.5, 129997.5, 132332.5, 134665.0, 137000.0, 139332.5, 141667.5, 144002.5, 146335.0, 148670.0, 151002.5, 153337.5, 155672.5, 158005.0, 160340.0, 162672.5, 165007.5, 167342.5, 169675.0, 172010.0, 174342.5, 176677.5, 179012.5, 181345.0, 183680.0, 186012.5, 188347.5, 190682.5, 193015.0, 195350.0, 197682.5, 200017.5, 202352.5, 204685.0, 207020.0, 209352.5, 211687.5, 214022.5, 216355.0, 218690.0, 221022.5, 223357.5, 225692.5, 228025.0, 230360.0, 232692.5, 235027.5, 237362.5, 239695.0, 242030.0],
      "WindowCenter": [7870.0, 7848.0, 2743.0, 1559.0, 2756.0, 1533.0, 2706.0, 1628.0, 2739.0, 1579.0, 2734.0, 1541.0, 2746.0, 1634.0, 2721.0, 1662.0, 2706.0, 7813.0, 1587.0, 2742.0, 1541.0, 2706.0, 1590.0, 2759.0, 1560.0, 2710.0, 1586.0, 2709.0, 1617.0, 2751.0, 1602.0, 2779.0, 1522.0, 7719.0, 2709.0, 1572.0, 2720.0, 1633.0, 2702.0, 1541.0, 2695.0, 1556.0, 2678.0, 1556.0, 2752.0, 1550.0, 2708.0, 1642.0, 2763.0, 7776.0, 1606.0, 2712.0, 1580.0, 2716.0, 1654.0, 2746.0, 1559.0, 2740.0, 1568.0, 2780.0, 1596.0, 2716.0, 1611.0, 2722.0, 1570.0, 7757.0, 2706.0, 1618.0, 2767.0, 1542.0, 2683.0, 1572.0, 2708.0, 1602.0, 2733.0, 1624.0, 2755.0, 1545.0, 2727.0, 1587.0, 2693.0, 7713.0, 1574.0, 2722.0, 1557.0, 2751.0, 1638.0, 2723.0, 1534.0, 2718.0, 1636.0, 2724.0, 1565.0, 2752.0, 1620.0, 2685.0, 1628.0, 2735.0, 1511.0],
      "WindowWidth": [17264.0, 17221.0, 6564.0, 4049.0, 6605.0, 3996.0, 6490.0, 4197.0, 6551.0, 4076.0, 6534.0, 4037.0, 6586.0, 4220.0, 6524.0, 4272.0, 6484.0, 17142.0, 4109.0, 6572.0, 4011.0, 6491.0, 4127.0, 6577.0, 4080.0, 6496.0, 4103.0, 6489.0, 4207.0, 6580.0, 4148.0, 6629.0, 3986.0, 16965.0, 6488.0, 4082.0, 6514.0, 4180.0, 6473.0, 4036.0, 6472.0, 4045.0, 6430.0, 4066.0, 6577.0, 4016.0, 6488.0, 4250.0, 6594.0, 17059.0, 4129.0, 6507.0, 4114.0, 6495.0, 4271.0, 6561.0, 4078.0, 6567.0, 4066.0, 6628.0, 4122.0, 6502.0, 4146.0, 6528.0, 4102.0, 17011.0, 6475.0, 4179.0, 6608.0, 4013.0, 6442.0, 4078.0, 6503.0, 4111.0, 6532.0, 4206.0, 6587.0, 4049.0, 6540.0, 4116.0, 6460.0, 16928.0, 4078.0, 6515.0, 4040.0, 6579.0, 4235.0, 6518.0, 4005.0, 6502.0, 4192.0, 6525.0, 4078.0, 6591.0, 4187.0, 6453.0, 4221.0, 6542.0, 3963.0]
    },
    "slices": {}
  }
}