{
  "AcquisitionMatrixPE": 110,
  "AcquisitionNumber": 1,
  "AcquisitionTime": "13:30:40.207500",
  "BandwidthPerPixelPhaseEncode": 12.987,
  "BaseResolution": 110,
  "BodyPartExamined": "BRAIN",
  "ConsistencyInfo": "N4_VE11C_LATEST_20160120",
  "ConversionSoftware": "dcm2niix",
  "ConversionSoftwareVersion": "v1.0.20190902",
  "DerivedVendorReportedEchoSpacing": 0.000700001,
  "DeviceSerialNumber": "167006",
  "DiffusionScheme": "Monopolar",
  "DwellTime": 2.7e-06,
  "EchoTime": 0.0816,
  "EchoTrainLength": 83,
  "EffectiveEchoSpacing": 0.000700001,
  "FlipAngle": 78,
  "ImageComments": "Unaliased_MB3_PE3_LB_SENSE1",
  "ImageOrientationPatientDICOM": [1, 0, 0, 0, 0.829038, -0.559193],
  "ImageType": [
    "ORIGINAL",
    "PRIMARY",
    "DIFFUSION",
    "NONE",
    "MB",
    "ND",
    "MOSAIC"
],
  "ImagingFrequency": 123.259,
  "InPlanePhaseEncodingDirectionDICOM": "COL",
  "InstitutionAddress": "Chemin_Queen-Mary_4565_Montreal_District_CA_H3W_1W5",
  "InstitutionName": "IUGM",
  "InstitutionalDepartmentName": "Department",
  "MRAcquisitionType": "2D",
  "MagneticFieldStrength": 3,
  "Manufacturer": "Siemens",
  "ManufacturersModelName": "Prisma_fit",
  "Modality": "MR",
  "MultibandAccelerationFactor": 3,
  "PartialFourier": 0.75,
  "PatientPosition": "HFS",
  "PercentPhaseFOV": 100,
  "PhaseEncodingDirection": "j",
  "PhaseEncodingSteps": 83,
  "PhaseResolution": 1,
  "PixelBandwidth": 1685,
  "ProcedureStepDescription": "hcptrt_generic",
  "ProtocolName": "dMRI_dir98_PA_test_cmrr",
  "PulseSequenceDetails": "%CustomerSeq%_cmrr_mbep2d_diff",
  "ReceiveCoilActiveElements": "HC1-7",
  "ReceiveCoilName": "HeadNeck_64",
  "ReconMatrixPE": 110,
  "RepetitionTime": 2.334,
  "SAR": 0.128679,
  "ScanOptions": "PFP_EXT",
  "ScanningSequence": "EP",
  "SequenceName": "ep_b5#1",
  "SequenceVariant": "SK_SS",
  "SeriesDescription": "dMRI_dir98_PA_test_cmrr",
  "SeriesNumber": 11,
  "ShimSetting": [629, -7188, -8864, 457, -33, -161, 43, -22],
  "SliceThickness": 2,
  "SliceTiming": [0, 1.2175, 0.12, 1.3375, 0.2425, 1.46, 0.365, 1.5825, 0.485, 1.7025, 0.6075, 1.825, 0.73, 1.9475, 0.8525, 2.07, 0.9725, 2.19, 1.095, 0, 1.2175, 0.12, 1.3375, 0.2425, 1.46, 0.365, 1.5825, 0.485, 1.7025, 0.6075, 1.825, 0.73, 1.9475, 0.8525, 2.07, 0.9725, 2.19, 1.095, 0, 1.2175, 0.12, 1.3375, 0.2425, 1.46, 0.365, 1.5825, 0.485, 1.7025, 0.6075, 1.825, 0.73, 1.9475, 0.8525, 2.07, 0.9725, 2.19, 1.095],
  "SoftwareVersions": "syngo_MR_E11",
  "SpacingBetweenSlices": 2,
  "StationName": "MRC35049",
  "TotalReadoutTime": 0.0763001,
  "TxRefAmp": 247.246,
  "WipMemBlock": "cec25448-2cc7-4358-89a7-2c46bbccf47d||Sequence: R016 ve11c/master r/e634e98; Dec 19 2017 11:11:25 by eja",
  "dcmmeta_affine": [
    [-2.0, 0.0, 0.0, 109.49686431884766],
    [0.0, 1.6580750942230225, -1.1183857917785645, -62.70862579345703],
    [0.0, 1.1183857917785645, 1.658075213432312, -109.24671936035156],
    [0.0, 0.0, 0.0, 1.0]
],
  "dcmmeta_reorient_transform": [
    [0.0, -1.0, 0.0, 109.0],
    [1.0, 0.0, 0.0, 0.0],
    [0.0, 0.0, 1.0, 0.0],
    [0.0, 0.0, 0.0, 1.0]
],
  "dcmmeta_shape": [110, 110, 57, 99],
  "dcmmeta_slice_dim": 2,
  "dcmmeta_version": 0.6,
  "global": {
    "const": {
      "AcquisitionMatrix": [110, 0, 0, 110],
      "AngioFlag": "N",
      "BitsAllocated": 16,
      "BitsStored": 16,
      "BodyPartExamined": "BRAIN",
      "CardiacNumberOfImages": 1,
      "Columns": 880,
      "EchoNumbers": 1,
      "EchoTime": 81.6,
      "EchoTrainLength": 83,
      "FlipAngle": 78.0,
      "HighBit": 15,
      "ImageOrientationPatient": [1.0, 0.0, 0.0, 0.0, 0.82903757600882, -0.5591928983503],
      "ImagePositionPatient": [-879.49686384201, -756.38049952021, 443.23586489765],
      "ImageType": [
        "ORIGINAL",
        "PRIMARY",
        "DIFFUSION",
        "NONE",
        "MB",
        "ND",
        "MOSAIC"
],
      "ImagedNucleus": "1H",
      "ImagingFrequency": 123.259406,
      "InPlanePhaseEncodingDirection": "COL",
      "MRAcquisitionType": "2D",
      "MagneticFieldStrength": 3.0,
      "Manufacturer": "SIEMENS",
      "ManufacturerModelName": "Prisma_fit",
      "Modality": "MR",
      "NominalInterval": 0,
      "NumberOfAverages": 1.0,
      "NumberOfPhaseEncodingSteps": 83,
      "PercentPhaseFieldOfView": 100.0,
      "PercentSampling": 100.0,
      "PerformedProcedureStepStartTime": "131048.233000",
      "PhotometricInterpretation": "MONOCHROME2",
      "PixelBandwidth": 1685.0,
      "PixelRepresentation": 0,
      "PixelSpacing": [2.0, 2.0],
      "ProtocolName": "dMRI_dir98_PA_test_cmrr",
      "RepetitionTime": 2334.0,
      "Rows": 880,
      "SAR": 0.12867922937861,
      "SamplesPerPixel": 1,
      "ScanOptions": [
        "PFP",
        "EXT"
],
      "ScanningSequence": "EP",
      "SequenceVariant": [
        "SK",
        "SS"
],
      "SeriesDescription": "dMRI_dir98_PA_test_cmrr",
      "SeriesNumber": 11,
      "SeriesTime": "133134.340000",
      "SliceLocation": -55.50341674745,
      "SliceThickness": 2.0,
      "SmallestImagePixelValue": 0,
      "SoftwareVersions": "syngo MR E11",
      "SpacingBetweenSlices": 2.0000000530903,
      "SpecificCharacterSet": "ISO_IR 100",
      "StudyID": "1",
      "StudyTime": "131048.127000",
      "TransmitCoilName": "Body",
      "VariableFlipAngleFlag": "N",
      "WindowCenterWidthExplanation": "Algo1",
      "dBdt": 0.0},
    "slices": {}
  },
  "time": {
    "samples": {
      "AcquisitionNumber": [1, 2, 3, 4, 5, 6, 7, 8, 9, 10, 11, 12, 13, 14, 15, 16, 17, 18, 19, 20, 21, 22, 23, 24, 25, 26, 27, 28, 29, 30, 31, 32, 33, 34, 35, 36, 37, 38, 39, 40, 41, 42, 43, 44, 45, 46, 47, 48, 49, 50, 51, 52, 53, 54, 55, 56, 57, 58, 59, 60, 61, 62, 63, 64, 65, 66, 67, 68, 69, 70, 71, 72, 73, 74, 75, 76, 77, 78, 79, 80, 81, 82, 83, 84, 85, 86, 87, 88, 89, 90, 91, 92, 93, 94, 95, 96, 97, 98, 99],
      "AcquisitionTime": ["133040.207500", "133042.540000", "133044.875000", "133047.207500", "133049.542500", "133051.877500", "133054.210000", "133056.545000", "133058.877500", "133101.212500", "133103.547500", "133105.880000", "133108.215000", "133110.547500", "133112.882500", "133115.217500", "133117.550000", "133119.885000", "133122.217500", "133124.552500", "133126.887500", "133129.220000", "133131.555000", "133133.887500", "133136.222500", "133138.557500", "133140.890000", "133143.225000", "133145.557500", "133147.892500", "133150.227500", "133152.560000", "133154.895000", "133157.227500", "133159.562500", "133201.897500", "133204.230000", "133206.565000", "133208.897500", "133211.232500", "133213.567500", "133215.900000", "133218.235000", "133220.567500", "133222.902500", "133225.237500", "133227.570000", "133229.905000", "133232.237500", "133234.572500", "133236.907500", "133239.240000", "133241.575000", "133243.907500", "133246.242500", "133248.577500", "133250.910000", "133253.245000", "133255.577500", "133257.912500", "133300.247500", "133302.580000", "133304.915000", "133307.247500", "133309.582500", "133311.917500", "133314.250000", "133316.585000", "133318.917500", "133321.252500", "133323.587500", "133325.920000", "133328.255000", "133330.587500", "133332.922500", "133335.257500", "133337.590000", "133339.925000", "133342.257500", "133344.592500", "133346.927500", "133349.260000", "133351.595000", "133353.927500", "133356.262500", "133358.597500", "133400.930000", "133403.265000", "133405.597500", "133407.932500", "133410.267500", "133412.600000", "133414.935000", "133417.267500", "133419.602500", "133421.937500", "133424.270000", "133426.605000", "133428.937500"],
      "ContentTime": ["133134.343000", "133134.346000", "133134.349000", "133134.353000", "133134.356000", "133134.359000", "133134.362000", "133134.365000", "133134.368000", "133134.371000", "133134.374000", "133134.377000", "133134.380000", "133134.384000", "133134.387000", "133134.390000", "133134.393000", "133134.396000", "133134.399000", "133134.402000", "133134.405000", "133134.408000", "133234.301000", "133234.304000", "133234.308000", "133234.311000", "133234.314000", "133234.317000", "133234.320000", "133234.323000", "133234.326000", "133234.329000", "133234.333000", "133234.336000", "133234.339000", "133234.342000", "133234.345000", "133234.348000", "133234.351000", "133234.372000", "133234.375000", "133234.378000", "133234.381000", "133234.384000", "133234.387000", "133234.390000", "133234.393000", "133234.396000", "133334.300000", "133334.303000", "133334.307000", "133334.310000", "133334.313000", "133334.316000", "133334.319000", "133334.322000", "133334.325000", "133334.329000", "133334.332000", "133334.335000", "133334.338000", "133334.341000", "133334.344000", "133334.347000", "133334.350000", "133334.353000", "133334.356000", "133334.359000", "133334.362000", "133334.366000", "133334.369000", "133334.372000", "133334.375000", "133334.378000", "133354.301000", "133354.304000", "133354.308000", "133354.311000", "133354.314000", "133354.327000", "133354.330000", "133354.333000", "133434.150000", "133434.153000", "133434.156000", "133434.159000", "133434.163000", "133434.166000", "133434.169000", "133434.172000", "133434.175000", "133434.178000", "133434.182000", "133434.185000", "133434.188000", "133434.191000", "133434.194000", "133434.197000", "133434.200000"],
      "InstanceCreationTime": ["133134.343000", "133134.346000", "133134.349000", "133134.353000", "133134.356000", "133134.359000", "133134.362000", "133134.365000", "133134.368000", "133134.371000", "133134.374000", "133134.377000", "133134.380000", "133134.384000", "133134.387000", "133134.390000", "133134.393000", "133134.396000", "133134.399000", "133134.402000", "133134.405000", "133134.408000", "133234.301000", "133234.304000", "133234.308000", "133234.311000", "133234.314000", "133234.317000", "133234.320000", "133234.323000", "133234.326000", "133234.329000", "133234.333000", "133234.336000", "133234.339000", "133234.342000", "133234.345000", "133234.348000", "133234.351000", "133234.372000", "133234.375000", "133234.378000", "133234.381000", "133234.384000", "133234.387000", "133234.390000", "133234.393000", "133234.396000", "133334.300000", "133334.303000", "133334.307000", "133334.310000", "133334.313000", "133334.316000", "133334.319000", "133334.322000", "133334.325000", "133334.329000", "133334.332000", "133334.335000", "133334.338000", "133334.341000", "133334.344000", "133334.347000", "133334.350000", "133334.353000", "133334.356000", "133334.359000", "133334.362000", "133334.366000", "133334.369000", "133334.372000", "133334.375000", "133334.378000", "133354.301000", "133354.304000", "133354.308000", "133354.311000", "133354.314000", "133354.327000", "133354.330000", "133354.333000", "133434.150000", "133434.153000", "133434.156000", "133434.159000", "133434.163000", "133434.166000", "133434.169000", "133434.172000", "133434.175000", "133434.178000", "133434.182000", "133434.185000", "133434.188000", "133434.191000", "133434.194000", "133434.197000", "133434.200000"],
      "InstanceNumber": [1, 2, 3, 4, 5, 6, 7, 8, 9, 10, 11, 12, 13, 14, 15, 16, 17, 18, 19, 20, 21, 22, 23, 24, 25, 26, 27, 28, 29, 30, 31, 32, 33, 34, 35, 36, 37, 38, 39, 40, 41, 42, 43, 44, 45, 46, 47, 48, 49, 50, 51, 52, 53, 54, 55, 56, 57, 58, 59, 60, 61, 62, 63, 64, 65, 66, 67, 68, 69, 70, 71, 72, 73, 74, 75, 76, 77, 78, 79, 80, 81, 82, 83, 84, 85, 86, 87, 88, 89, 90, 91, 92, 93, 94, 95, 96, 97, 98, 99],
      "LargestImagePixelValue": [51653, 49760, 15927, 8948, 16427, 8457, 15481, 8296, 16044, 7317, 15630, 7642, 16600, 9091, 14461, 7892, 16286, 52709, 8191, 16229, 7534, 16549, 7966, 16220, 6800, 16065, 10047, 16729, 8201, 15416, 8875, 15282, 7830, 52034, 16137, 9730, 17366, 8555, 16406, 7183, 16072, 7448, 15504, 7871, 17061, 8659, 17056, 8047, 17140, 49901, 8887, 15556, 9536, 15350, 8387, 15083, 8073, 16493, 8303, 14386, 9693, 15269, 8311, 15005, 7434, 49790, 16484, 8492, 16023, 8992, 16753, 7224, 14414, 8422, 16937, 10505, 16965, 7778, 15722, 8391, 15422, 49325, 7937, 16068, 9683, 16210, 8367, 16926, 7725, 15504, 9272, 16303, 7237, 15015, 8213, 15262, 8814, 14359, 7327],
      "SequenceName": [
 "ep_b5#1",
 "ep_b5#1",
 "ep_b1490#2",
 "ep_b2990#3",
 "ep_b1495#4",
 "ep_b3005#5",
 "ep_b1505#6",
 "ep_b2985#7",
 "ep_b1500#8",
 "ep_b3005#9",
 "ep_b1490#10",
 "ep_b2990#11",
 "ep_b1495#12",
 "ep_b2990#13",
 "ep_b1500#14",
 "ep_b2985#15",
 "ep_b1500#16",
 "ep_b5#17",
 "ep_b3000#18",
 "ep_b1495#19",
 "ep_b3000#20",
 "ep_b1495#21",
 "ep_b2995#22",
 "ep_b1495#23",
 "ep_b3000#24",
 "ep_b1490#25",
 "ep_b2985#26",
 "ep_b1505#27",
 "ep_b2990#28",
 "ep_b1495#29",
 "ep_b3000#30",
 "ep_b1490#31",
 "ep_b3000#32",
 "ep_b5#33",
 "ep_b1505#34",
 "ep_b3000#35",
 "ep_b1490#36",
 "ep_b2985#37",
 "ep_b1495#38",
 "ep_b3000#39",
 "ep_b1500#40",
 "ep_b2995#41",
 "ep_b1505#42",
 "ep_b2990#43",
 "ep_b1495#44",
 "ep_b3000#45",
 "ep_b1495#46",
 "ep_b3000#47",
 "ep_b1490#48",
 "ep_b5#49",
 "ep_b3000#50",
 "ep_b1495#51",
 "ep_b2995#52",
 "ep_b1505#53",
 "ep_b2995#54",
 "ep_b1490#55",
 "ep_b2990#56",
 "ep_b1495#57",
 "ep_b3000#58",
 "ep_b1500#59",
 "ep_b3000#60",
 "ep_b1500#61",
 "ep_b2985#62",
 "ep_b1500#63",
 "ep_b2990#64",
 "ep_b5#65",
 "ep_b1505#66",
 "ep_b3000#67",
 "ep_b1495#68",
 "ep_b3000#69",
 "ep_b1505#70",
 "ep_b3005#71",
 "ep_b1500#72",
 "ep_b3005#73",
 "ep_b1495#74",
 "ep_b2990#75",
 "ep_b1495#76",
 "ep_b2995#77",
 "ep_b1500#78",
 "ep_b3000#79",
 "ep_b1490#80",
 "ep_b5#81",
 "ep_b2990#82",
 "ep_b1500#83",
 "ep_b2985#84",
 "ep_b1495#85",
 "ep_b2995#86",
 "ep_b1495#87",
 "ep_b2990#88",
 "ep_b1490#89",
 "ep_b2985#90",
 "ep_b1495#91",
 "ep_b2995#92",
 "ep_b1495#93",
 "ep_b3005#94",
 "ep_b1500#95",
 "ep_b2990#96",
 "ep_b1500#97",
 "ep_b2995#98"
],
      "TriggerTime": [13297.5, 15632.5, 17967.5, 20300.0, 22635.0, 24967.5, 27302.5, 29637.5, 31970.0, 34305.0, 36637.5, 38972.5, 41307.5, 43640.0, 45975.0, 48307.5, 50642.5, 52977.5, 55310.0, 57645.0, 59977.5, 62312.5, 64647.5, 66980.0, 69315.0, 71647.5, 73982.5, 76317.5, 78650.0, 80985.0, 83317.5, 85652.5, 87987.5, 90320.0, 92655.0, 94987.5, 97322.5, 99657.5, 101990.0, 104325.0, 106657.5, 108992.5, 111327.5, 113660.0, 115995.0, 118327.5, 120662.5, 122997.5, 125330.0, 127665.0, 129997.5, 132332.5, 134667.5, 137000.0, 139335.0, 141667.5, 144002.5, 146337.5, 148670.0, 151005.0, 153337.5, 155672.5, 158007.5, 160340.0, 162675.0, 165007.5, 167342.5, 169677.5, 172010.0, 174345.0, 176677.5, 179012.5, 181347.5, 183680.0, 186015.0, 188347.5, 190682.5, 193017.5, 195350.0, 197685.0, 200017.5, 202352.5, 204687.5, 207020.0, 209355.0, 211687.5, 214022.5, 216357.5, 218690.0, 221025.0, 223357.5, 225692.5, 228027.5, 230360.0, 232695.0, 235027.5, 237362.5, 239697.5, 242030.0],
      "WindowCenter": [7896.0, 7860.0, 2945.0, 1761.0, 2926.0, 1745.0, 2919.0, 1769.0, 2955.0, 1705.0, 2919.0, 1765.0, 2964.0, 1799.0, 2886.0, 1751.0, 2915.0, 7844.0, 1760.0, 2968.0, 1710.0, 2970.0, 1771.0, 2967.0, 1732.0, 2912.0, 1768.0, 2927.0, 1778.0, 2925.0, 1757.0, 2932.0, 1742.0, 7809.0, 2933.0, 1764.0, 2964.0, 1756.0, 2932.0, 1727.0, 2961.0, 1726.0, 2899.0, 1757.0, 2980.0, 1734.0, 2973.0, 1767.0, 2943.0, 7791.0, 1773.0, 2959.0, 1804.0, 2907.0, 1774.0, 2903.0, 1767.0, 2939.0, 1712.0, 2921.0, 1769.0, 2900.0, 1746.0, 2917.0, 1730.0, 7827.0, 2936.0, 1784.0, 2942.0, 1745.0, 2950.0, 1734.0, 2909.0, 1727.0, 2928.0, 1808.0, 2954.0, 1778.0, 2939.0, 1728.0, 2898.0, 7769.0, 1746.0, 2930.0, 1760.0, 2926.0, 1788.0, 2951.0, 1749.0, 2905.0, 1761.0, 2940.0, 1742.0, 2936.0, 1759.0, 2910.0, 1776.0, 2884.0, 1731.0],
      "WindowWidth": [17140.0, 17079.0, 6967.0, 4468.0, 6912.0, 4466.0, 6892.0, 4504.0, 6974.0, 4383.0, 6922.0, 4489.0, 6983.0, 4568.0, 6848.0, 4484.0, 6909.0, 17007.0, 4496.0, 6995.0, 4376.0, 6984.0, 4516.0, 6991.0, 4437.0, 6896.0, 4496.0, 6940.0, 4536.0, 6911.0, 4484.0, 6931.0, 4451.0, 16943.0, 6958.0, 4484.0, 6988.0, 4472.0, 6913.0, 4413.0, 6987.0, 4416.0, 6876.0, 4482.0, 7018.0, 4416.0, 6999.0, 4521.0, 6955.0, 16917.0, 4525.0, 6970.0, 4560.0, 6910.0, 4521.0, 6876.0, 4492.0, 6944.0, 4387.0, 6914.0, 4509.0, 6879.0, 4461.0, 6882.0, 4427.0, 16987.0, 6966.0, 4533.0, 6946.0, 4435.0, 6974.0, 4452.0, 6878.0, 4418.0, 6930.0, 4573.0, 6970.0, 4510.0, 6943.0, 4422.0, 6855.0, 16871.0, 4462.0, 6933.0, 4463.0, 6920.0, 4553.0, 6959.0, 4451.0, 6888.0, 4497.0, 6945.0, 4447.0, 6926.0, 4490.0, 6883.0, 4533.0, 6862.0, 4434.0]
    },
    "slices": {}
  }
}