{
  "AcquisitionMatrixPE": 110,
  "AcquisitionNumber": 1,
  "AcquisitionTime": "16:40:50.242500",
  "BandwidthPerPixelPhaseEncode": 12.987,
  "BaseResolution": 110,
  "BodyPartExamined": "BRAIN",
  "ConsistencyInfo": "N4_VE11C_LATEST_20160120",
  "ConversionSoftware": "dcm2niix",
  "ConversionSoftwareVersion": "v1.0.20190902",
  "DerivedVendorReportedEchoSpacing": 0.000700001,
  "DeviceSerialNumber": "167006",
  "DiffusionScheme": "Monopolar",
  "DwellTime": 2.7e-06,
  "EchoTime": 0.0816,
  "EchoTrainLength": 83,
  "EffectiveEchoSpacing": 0.000700001,
  "FlipAngle": 78,
  "ImageComments": "Unaliased_MB3_PE3_LB_SENSE1",
  "ImageOrientationPatientDICOM": [1, 0, 0, 0, 0.939693, -0.34202],
  "ImageType": [
    "ORIGINAL",
    "PRIMARY",
    "DIFFUSION",
    "NONE",
    "MB",
    "ND",
    "MOSAIC"
],
  "ImagingFrequency": 123.26,
  "InPlanePhaseEncodingDirectionDICOM": "COL",
  "InstitutionAddress": "Chemin_Queen-Mary_4565_Montreal_District_CA_H3W_1W5",
  "InstitutionName": "IUGM",
  "InstitutionalDepartmentName": "Department",
  "MRAcquisitionType": "2D",
  "MagneticFieldStrength": 3,
  "Manufacturer": "Siemens",
  "ManufacturersModelName": "Prisma_fit",
  "Modality": "MR",
  "MultibandAccelerationFactor": 3,
  "PartialFourier": 0.75,
  "PatientPosition": "HFS",
  "PercentPhaseFOV": 100,
  "PhaseEncodingDirection": "j-",
  "PhaseEncodingSteps": 83,
  "PhaseResolution": 1,
  "PixelBandwidth": 1685,
  "ProcedureStepDescription": "neuromod_generic",
  "ProtocolName": "dMRI_dir98_AP_test_cmrr",
  "PulseSequenceDetails": "%CustomerSeq%_cmrr_mbep2d_diff",
  "ReceiveCoilActiveElements": "HC1-7",
  "ReceiveCoilName": "HeadNeck_64",
  "ReconMatrixPE": 110,
  "RepetitionTime": 2.334,
  "SAR": 0.128912,
  "ScanOptions": "PFP_EXT",
  "ScanningSequence": "EP",
  "SequenceName": "ep_b5#1",
  "SequenceVariant": "SK_SS",
  "SeriesDescription": "dMRI_dir98_AP_test_cmrr",
  "SeriesNumber": 7,
  "ShimSetting": [588, -7237, -8817, 449, -2, -320, 70, 12],
  "SliceThickness": 2,
  "SliceTiming": [0, 1.2175, 0.1225, 1.34, 0.2425, 1.46, 0.365, 1.5825, 0.4875, 1.705, 0.6075, 1.825, 0.73, 1.9475, 0.8525, 2.07, 0.9725, 2.1925, 1.095, 0, 1.2175, 0.1225, 1.34, 0.2425, 1.46, 0.365, 1.5825, 0.4875, 1.705, 0.6075, 1.825, 0.73, 1.9475, 0.8525, 2.07, 0.9725, 2.1925, 1.095, 0, 1.2175, 0.1225, 1.34, 0.2425, 1.46, 0.365, 1.5825, 0.4875, 1.705, 0.6075, 1.825, 0.73, 1.9475, 0.8525, 2.07, 0.9725, 2.1925, 1.095],
  "SoftwareVersions": "syngo_MR_E11",
  "SpacingBetweenSlices": 2,
  "StationName": "MRC35049",
  "TotalReadoutTime": 0.0763001,
  "TxRefAmp": 234.867,
  "WipMemBlock": "9eeabf36-68d5-4198-b529-ae1f93f40e4e||Sequence: R016 ve11c/master r/e634e98; Dec 19 2017 11:11:25 by eja",
  "dcmmeta_affine": [
    [-2.0, 0.0, 0.0, 108.12663269042969],
    [0.0, 1.879385232925415, -0.6840403079986572, -75.7105712890625],
    [0.0, 0.6840403079986572, 1.879385232925415, -62.10114669799805],
    [0.0, 0.0, 0.0, 1.0]
],
  "dcmmeta_reorient_transform": [
    [0.0, -1.0, 0.0, 109.0],
    [1.0, 0.0, 0.0, 0.0],
    [0.0, 0.0, 1.0, 0.0],
    [0.0, 0.0, 0.0, 1.0]
],
  "dcmmeta_shape": [110, 110, 57, 99],
  "dcmmeta_slice_dim": 2,
  "dcmmeta_version": 0.6,
  "global": {
    "const": {
      "AcquisitionMatrix": [110, 0, 0, 110],
      "AngioFlag": "N",
      "BitsAllocated": 16,
      "BitsStored": 16,
      "BodyPartExamined": "BRAIN",
      "CardiacNumberOfImages": 1,
      "Columns": 880,
      "EchoNumbers": 1,
      "EchoTime": 81.6,
      "EchoTrainLength": 83,
      "FlipAngle": 78.0,
      "HighBit": 15,
      "ImageOrientationPatient": [1.0, 0.0, 0.0, 0.0, 0.93969261856831, -0.3420201494185],
      "ImagePositionPatient": [-878.12663543224, -852.70573419851, 275.81475999167],
      "ImageType": [
        "ORIGINAL",
        "PRIMARY",
        "DIFFUSION",
        "NONE",
        "MB",
        "ND",
        "MOSAIC"
],
      "ImagedNucleus": "1H",
      "ImagingFrequency": 123.259579,
      "InPlanePhaseEncodingDirection": "COL",
      "MRAcquisitionType": "2D",
      "MagneticFieldStrength": 3.0,
      "Manufacturer": "SIEMENS",
      "ManufacturerModelName": "Prisma_fit",
      "Modality": "MR",
      "NominalInterval": 0,
      "NumberOfAverages": 1.0,
      "NumberOfPhaseEncodingSteps": 83,
      "PercentPhaseFieldOfView": 100.0,
      "PercentSampling": 100.0,
      "PerformedProcedureStepStartTime": "160404.075000",
      "PhotometricInterpretation": "MONOCHROME2",
      "PixelBandwidth": 1685.0,
      "PixelRepresentation": 0,
      "PixelSpacing": [2.0, 2.0],
      "ProtocolName": "dMRI_dir98_AP_test_cmrr",
      "RepetitionTime": 2334.0,
      "Rows": 880,
      "SAR": 0.12891190664115,
      "SamplesPerPixel": 1,
      "ScanOptions": [
        "PFP",
        "EXT"
],
      "ScanningSequence": "EP",
      "SequenceVariant": [
        "SK",
        "SS"
],
      "SeriesDescription": "dMRI_dir98_AP_test_cmrr",
      "SeriesNumber": 7,
      "SeriesTime": "164147.636000",
      "SliceLocation": -32.461448564197,
      "SliceThickness": 2.0,
      "SmallestImagePixelValue": 0,
      "SoftwareVersions": "syngo MR E11",
      "SpacingBetweenSlices": 2.0000000253574,
      "SpecificCharacterSet": "ISO_IR 100",
      "StudyID": "1",
      "StudyTime": "160404.004000",
      "TransmitCoilName": "Body",
      "VariableFlipAngleFlag": "N",
      "WindowCenterWidthExplanation": "Algo1",
      "dBdt": 0.0},
    "slices": {}
  },
  "time": {
    "samples": {
      "AcquisitionNumber": [1, 2, 3, 4, 5, 6, 7, 8, 9, 10, 11, 12, 13, 14, 15, 16, 17, 18, 19, 20, 21, 22, 23, 24, 25, 26, 27, 28, 29, 30, 31, 32, 33, 34, 35, 36, 37, 38, 39, 40, 41, 42, 43, 44, 45, 46, 47, 48, 49, 50, 51, 52, 53, 54, 55, 56, 57, 58, 59, 60, 61, 62, 63, 64, 65, 66, 67, 68, 69, 70, 71, 72, 73, 74, 75, 76, 77, 78, 79, 80, 81, 82, 83, 84, 85, 86, 87, 88, 89, 90, 91, 92, 93, 94, 95, 96, 97, 98, 99],
      "AcquisitionTime": ["164050.242500", "164052.575000", "164054.910000", "164057.245000", "164059.577500", "164101.912500", "164104.245000", "164106.580000", "164108.915000", "164111.247500", "164113.582500", "164115.915000", "164118.250000", "164120.585000", "164122.917500", "164125.252500", "164127.585000", "164129.920000", "164132.255000", "164134.587500", "164136.922500", "164139.255000", "164141.590000", "164143.925000", "164146.257500", "164148.592500", "164150.925000", "164153.260000", "164155.595000", "164157.927500", "164200.262500", "164202.595000", "164204.930000", "164207.265000", "164209.597500", "164211.932500", "164214.265000", "164216.600000", "164218.935000", "164221.267500", "164223.602500", "164225.935000", "164228.270000", "164230.605000", "164232.937500", "164235.272500", "164237.605000", "164239.940000", "164242.275000", "164244.607500", "164246.942500", "164249.275000", "164251.610000", "164253.945000", "164256.277500", "164258.612500", "164300.945000", "164303.280000", "164305.615000", "164307.947500", "164310.282500", "164312.615000", "164314.950000", "164317.285000", "164319.617500", "164321.952500", "164324.285000", "164326.620000", "164328.955000", "164331.287500", "164333.622500", "164335.955000", "164338.290000", "164340.625000", "164342.957500", "164345.292500", "164347.625000", "164349.960000", "164352.295000", "164354.627500", "164356.962500", "164359.295000", "164401.630000", "164403.965000", "164406.297500", "164408.632500", "164410.965000", "164413.300000", "164415.635000", "164417.967500", "164420.302500", "164422.635000", "164424.970000", "164427.305000", "164429.637500", "164431.972500", "164434.305000", "164436.640000", "164438.975000"],
      "ContentTime": ["164147.639000", "164147.649000", "164147.652000", "164147.655000", "164147.658000", "164147.663000", "164147.666000", "164147.669000", "164147.676000", "164147.679000", "164147.682000", "164147.685000", "164147.688000", "164147.692000", "164147.695000", "164147.698000", "164147.701000", "164147.704000", "164147.707000", "164147.710000", "164147.713000", "164147.717000", "164147.720000", "164147.723000", "164247.613000", "164247.617000", "164247.620000", "164247.623000", "164247.626000", "164247.629000", "164247.633000", "164247.636000", "164247.639000", "164247.642000", "164247.645000", "164247.648000", "164247.651000", "164247.654000", "164247.658000", "164247.661000", "164247.664000", "164247.667000", "164247.670000", "164247.673000", "164247.677000", "164247.680000", "164247.683000", "164247.686000", "164247.689000", "164347.613000", "164347.617000", "164347.620000", "164347.623000", "164347.626000", "164347.629000", "164347.632000", "164347.641000", "164347.644000", "164347.647000", "164347.650000", "164347.653000", "164347.657000", "164347.660000", "164347.663000", "164347.666000", "164347.669000", "164347.672000", "164347.676000", "164347.679000", "164347.682000", "164347.685000", "164347.688000", "164347.691000", "164347.694000", "164347.697000", "164444.189000", "164444.193000", "164444.196000", "164444.200000", "164444.203000", "164444.207000", "164444.211000", "164444.214000", "164444.218000", "164444.221000", "164444.225000", "164444.228000", "164444.232000", "164444.236000", "164444.239000", "164444.243000", "164444.246000", "164444.250000", "164444.254000", "164444.257000", "164444.261000", "164444.264000", "164444.268000", "164444.271000"],
      "InstanceCreationTime": ["164147.639000", "164147.649000", "164147.652000", "164147.655000", "164147.658000", "164147.663000", "164147.666000", "164147.669000", "164147.676000", "164147.679000", "164147.682000", "164147.685000", "164147.688000", "164147.692000", "164147.695000", "164147.698000", "164147.701000", "164147.704000", "164147.707000", "164147.710000", "164147.713000", "164147.717000", "164147.720000", "164147.723000", "164247.613000", "164247.617000", "164247.620000", "164247.623000", "164247.626000", "164247.629000", "164247.633000", "164247.636000", "164247.639000", "164247.642000", "164247.645000", "164247.648000", "164247.651000", "164247.654000", "164247.658000", "164247.661000", "164247.664000", "164247.667000", "164247.670000", "164247.673000", "164247.677000", "164247.680000", "164247.683000", "164247.686000", "164247.689000", "164347.613000", "164347.617000", "164347.620000", "164347.623000", "164347.626000", "164347.629000", "164347.632000", "164347.641000", "164347.644000", "164347.647000", "164347.650000", "164347.653000", "164347.657000", "164347.660000", "164347.663000", "164347.666000", "164347.669000", "164347.672000", "164347.676000", "164347.679000", "164347.682000", "164347.685000", "164347.688000", "164347.691000", "164347.694000", "164347.697000", "164444.189000", "164444.193000", "164444.196000", "164444.200000", "164444.203000", "164444.207000", "164444.211000", "164444.214000", "164444.218000", "164444.221000", "164444.225000", "164444.228000", "164444.232000", "164444.236000", "164444.239000", "164444.243000", "164444.246000", "164444.250000", "164444.254000", "164444.257000", "164444.261000", "164444.264000", "164444.268000", "164444.271000"],
      "InstanceNumber": [1, 2, 3, 4, 5, 6, 7, 8, 9, 10, 11, 12, 13, 14, 15, 16, 17, 18, 19, 20, 21, 22, 23, 24, 25, 26, 27, 28, 29, 30, 31, 32, 33, 34, 35, 36, 37, 38, 39, 40, 41, 42, 43, 44, 45, 46, 47, 48, 49, 50, 51, 52, 53, 54, 55, 56, 57, 58, 59, 60, 61, 62, 63, 64, 65, 66, 67, 68, 69, 70, 71, 72, 73, 74, 75, 76, 77, 78, 79, 80, 81, 82, 83, 84, 85, 86, 87, 88, 89, 90, 91, 92, 93, 94, 95, 96, 97, 98, 99],
      "LargestImagePixelValue": [45787, 46819, 9296, 3649, 8072, 4686, 8377, 4952, 8700, 4387, 8959, 3663, 8853, 4497, 8232, 4479, 8178, 45266, 4575, 9374, 3992, 8128, 3940, 8530, 4082, 9130, 4649, 9060, 4439, 8213, 4395, 8569, 3761, 44633, 9270, 4181, 8697, 4533, 8006, 3889, 8280, 4018, 8104, 5049, 8490, 3915, 8293, 5074, 8144, 40320, 5046, 8085, 3986, 9391, 4835, 8190, 4143, 9699, 3955, 8814, 4782, 8693, 4662, 8525, 3891, 37483, 9575, 4340, 8606, 3972, 8888, 3952, 8500, 4499, 8450, 4543, 8986, 3644, 8922, 4810, 8780, 39252, 5093, 8538, 3972, 9196, 4636, 8661, 3863, 9455, 4994, 8264, 3978, 8552, 4861, 8495, 5212, 8654, 4541],
      "SequenceName": [
 "ep_b5#1",
 "ep_b5#1",
 "ep_b1490#2",
 "ep_b2990#3",
 "ep_b1495#4",
 "ep_b3005#5",
 "ep_b1500#6",
 "ep_b2985#7",
 "ep_b1495#8",
 "ep_b3005#9",
 "ep_b1490#10",
 "ep_b2995#11",
 "ep_b1495#12",
 "ep_b2990#13",
 "ep_b1500#14",
 "ep_b2985#15",
 "ep_b1500#16",
 "ep_b5#17",
 "ep_b3005#18",
 "ep_b1490#19",
 "ep_b2995#20",
 "ep_b1495#21",
 "ep_b3000#22",
 "ep_b1495#23",
 "ep_b3000#24",
 "ep_b1490#25",
 "ep_b2985#26",
 "ep_b1505#27",
 "ep_b2990#28",
 "ep_b1495#29",
 "ep_b3000#30",
 "ep_b1490#31",
 "ep_b3000#32",
 "ep_b5#33",
 "ep_b1505#34",
 "ep_b3000#35",
 "ep_b1490#36",
 "ep_b2985#37",
 "ep_b1495#38",
 "ep_b2995#39",
 "ep_b1500#40",
 "ep_b2995#41",
 "ep_b1500#42",
 "ep_b2990#43",
 "ep_b1495#44",
 "ep_b3000#45",
 "ep_b1495#46",
 "ep_b3000#47",
 "ep_b1490#48",
 "ep_b5#49",
 "ep_b3000#50",
 "ep_b1495#51",
 "ep_b2990#52",
 "ep_b1505#53",
 "ep_b2995#54",
 "ep_b1495#55",
 "ep_b2990#56",
 "ep_b1490#57",
 "ep_b2995#58",
 "ep_b1500#59",
 "ep_b3000#60",
 "ep_b1500#61",
 "ep_b2985#62",
 "ep_b1500#63",
 "ep_b2990#64",
 "ep_b5#65",
 "ep_b1505#66",
 "ep_b3005#67",
 "ep_b1495#68",
 "ep_b3000#69",
 "ep_b1505#70",
 "ep_b3005#71",
 "ep_b1500#72",
 "ep_b3005#73",
 "ep_b1495#74",
 "ep_b2995#75",
 "ep_b1495#76",
 "ep_b2995#77",
 "ep_b1500#78",
 "ep_b3000#79",
 "ep_b1490#80",
 "ep_b5#81",
 "ep_b2990#82",
 "ep_b1500#83",
 "ep_b2985#84",
 "ep_b1495#85",
 "ep_b2995#86",
 "ep_b1495#87",
 "ep_b2995#88",
 "ep_b1490#89",
 "ep_b2985#90",
 "ep_b1500#91",
 "ep_b3000#92",
 "ep_b1495#93",
 "ep_b3005#94",
 "ep_b1495#95",
 "ep_b2990#96",
 "ep_b1500#97",
 "ep_b3000#98"
],
      "TriggerTime": [13300.0, 15632.5, 17967.5, 20300.0, 22635.0, 24970.0, 27302.5, 29637.5, 31970.0, 34305.0, 36640.0, 38972.5, 41307.5, 43640.0, 45975.0, 48310.0, 50642.5, 52977.5, 55310.0, 57645.0, 59980.0, 62312.5, 64647.5, 66980.0, 69315.0, 71650.0, 73982.5, 76317.5, 78650.0, 80985.0, 83320.0, 85652.5, 87987.5, 90320.0, 92655.0, 94990.0, 97322.5, 99657.5, 101990.0, 104325.0, 106660.0, 108992.5, 111327.5, 113660.0, 115995.0, 118330.0, 120662.5, 122997.5, 125330.0, 127665.0, 130000.0, 132332.5, 134667.5, 137000.0, 139335.0, 141670.0, 144002.5, 146337.5, 148670.0, 151005.0, 153340.0, 155672.5, 158007.5, 160340.0, 162675.0, 165010.0, 167342.5, 169677.5, 172010.0, 174345.0, 176680.0, 179012.5, 181347.5, 183680.0, 186015.0, 188350.0, 190682.5, 193017.5, 195350.0, 197685.0, 200020.0, 202352.5, 204687.5, 207020.0, 209355.0, 211690.0, 214022.5, 216357.5, 218690.0, 221025.0, 223360.0, 225692.5, 228027.5, 230360.0, 232695.0, 235030.0, 237362.5, 239697.5, 242030.0],
      "WindowCenter": [6986.0, 7009.0, 2567.0, 1445.0, 2577.0, 1519.0, 2582.0, 1483.0, 2557.0, 1474.0, 2552.0, 1451.0, 2621.0, 1501.0, 2556.0, 1502.0, 2537.0, 6893.0, 1508.0, 2597.0, 1457.0, 2556.0, 1465.0, 2543.0, 1505.0, 2564.0, 1488.0, 2583.0, 1508.0, 2597.0, 1483.0, 2586.0, 1458.0, 6943.0, 2580.0, 1465.0, 2524.0, 1479.0, 2549.0, 1495.0, 2556.0, 1453.0, 2537.0, 1532.0, 2541.0, 1447.0, 2515.0, 1528.0, 2554.0, 6910.0, 1517.0, 2593.0, 1476.0, 2549.0, 1519.0, 2555.0, 1503.0, 2594.0, 1439.0, 2569.0, 1479.0, 2533.0, 1487.0, 2587.0, 1459.0, 6849.0, 2560.0, 1511.0, 2590.0, 1470.0, 2545.0, 1458.0, 2558.0, 1458.0, 2539.0, 1515.0, 2580.0, 1449.0, 2615.0, 1492.0, 2559.0, 6893.0, 1529.0, 2542.0, 1452.0, 2602.0, 1500.0, 2533.0, 1457.0, 2573.0, 1516.0, 2557.0, 1477.0, 2621.0, 1510.0, 2563.0, 1528.0, 2572.0, 1506.0],
      "WindowWidth": [15242.0, 15293.0, 6132.0, 3791.0, 6190.0, 3922.0, 6180.0, 3867.0, 6127.0, 3830.0, 6111.0, 3817.0, 6249.0, 3912.0, 6133.0, 3917.0, 6088.0, 15007.0, 3906.0, 6201.0, 3814.0, 6131.0, 3848.0, 6099.0, 3924.0, 6131.0, 3861.0, 6173.0, 3938.0, 6207.0, 3864.0, 6195.0, 3818.0, 15130.0, 6159.0, 3824.0, 6058.0, 3842.0, 6108.0, 3908.0, 6126.0, 3803.0, 6084.0, 3948.0, 6095.0, 3778.0, 6051.0, 3968.0, 6125.0, 15077.0, 3917.0, 6196.0, 3861.0, 6099.0, 3958.0, 6126.0, 3912.0, 6188.0, 3773.0, 6156.0, 3847.0, 6077.0, 3849.0, 6182.0, 3834.0, 14954.0, 6117.0, 3923.0, 6188.0, 3838.0, 6096.0, 3823.0, 6125.0, 3793.0, 6091.0, 3940.0, 6167.0, 3816.0, 6232.0, 3883.0, 6124.0, 15017.0, 3937.0, 6098.0, 3791.0, 6206.0, 3912.0, 6076.0, 3817.0, 6141.0, 3918.0, 6134.0, 3868.0, 6254.0, 3921.0, 6137.0, 3971.0, 6150.0, 3901.0]
    },
    "slices": {}
  }
}