{
  "AcquisitionMatrixPE": 110,
  "AcquisitionNumber": 1,
  "AcquisitionTime": "15:38:45.562500",
  "BandwidthPerPixelPhaseEncode": 12.987,
  "BaseResolution": 110,
  "BodyPartExamined": "BRAIN",
  "CoilCombinationMethod": "Sum of Squares",
  "ConsistencyInfo": "N4_VE11C_LATEST_20160120",
  "ConversionSoftware": "dcm2niix",
  "ConversionSoftwareVersion": "v1.0.20211006",
  "DerivedVendorReportedEchoSpacing": 0.000700001,
  "DeviceSerialNumber": "167006",
  "DiffusionScheme": "Monopolar",
  "DwellTime": 2.7e-06,
  "EchoTime": 0.0768,
  "EchoTrainLength": 83,
  "EffectiveEchoSpacing": 0.000700001,
  "FlipAngle": 78,
  "HeudiconvVersion": "0.5.3.post569+g418601f",
  "ImageComments": "Unaliased MB3/PE3/LB SENSE1",
  "ImageOrientationPatientDICOM": [1, 0, 0, 0, 0.920505, -0.390731],
  "ImageOrientationText": "Tra>Cor(-23.0)",
  "ImageType": [
    "ORIGINAL",
    "PRIMARY",
    "DIFFUSION",
    "NONE",
    "MB",
    "ND",
    "MOSAIC"
],
  "ImagingFrequency": 123.259,
  "InPlanePhaseEncodingDirectionDICOM": "COL",
  "InstitutionAddress": "Chemin Queen-Mary 4565,Montreal,District,CA,H3W 1W5",
  "InstitutionName": "IUGM",
  "InstitutionalDepartmentName": "Department",
  "MRAcquisitionType": "2D",
  "MagneticFieldStrength": 3,
  "Manufacturer": "Siemens",
  "ManufacturersModelName": "Prisma_fit",
  "MatrixCoilMode": "SENSE",
  "Modality": "MR",
  "MultibandAccelerationFactor": 3,
  "PartialFourier": 0.75,
  "PatientPosition": "HFS",
  "PercentPhaseFOV": 100,
  "PercentSampling": 100,
  "PhaseEncodingDirection": "j-",
  "PhaseEncodingSteps": 83,
  "PhaseResolution": 1,
  "PixelBandwidth": 1685,
  "ProcedureStepDescription": "anat^generic",
  "ProtocolName": "dMRI_dir106_AP_test_cmrr",
  "PulseSequenceDetails": "%CustomerSeq%\\cmrr_mbep2d_diff",
  "ReceiveCoilActiveElements": "HC1-7",
  "ReceiveCoilName": "HeadNeck_64",
  "ReconMatrixPE": 110,
  "RepetitionTime": 2.243,
  "SAR": 0.13856,
  "ScanOptions": "PFP\\EXT",
  "ScanningSequence": "EP",
  "SequenceName": "ep_b5#1",
  "SequenceVariant": "SK\\SS",
  "SeriesDescription": "dMRI_dir106_AP_test_cmrr",
  "SeriesNumber": 7,
  "ShimSetting": [611, -7282, -8832, 422, 18, -435, 46, 41],
  "SliceThickness": 2,
  "SliceTiming": [0, 1.17, 0.1175, 1.2875, 0.235, 1.405, 0.3525, 1.5225, 0.4675, 1.6375, 0.585, 1.755, 0.7025, 1.8725, 0.82, 1.99, 0.9375, 2.1075, 1.0525, 0, 1.17, 0.1175, 1.2875, 0.235, 1.405, 0.3525, 1.5225, 0.4675, 1.6375, 0.585, 1.755, 0.7025, 1.8725, 0.82, 1.99, 0.9375, 2.1075, 1.0525, 0, 1.17, 0.1175, 1.2875, 0.235, 1.405, 0.3525, 1.5225, 0.4675, 1.6375, 0.585, 1.755, 0.7025, 1.8725, 0.82, 1.99, 0.9375, 2.1075, 1.0525],
  "SoftwareVersions": "syngo MR E11",
  "SpacingBetweenSlices": 2,
  "StationName": "MRC35049",
  "TotalReadoutTime": 0.0763001,
  "TxRefAmp": 234.332,
  "WipMemBlock": "0d7f4119-5a28-4bd6-b65e-8560be67093b||Sequence: R016 ve11c/master r/e634e98; Dec 19 2017 11:11:25 by eja",
  "dcmmeta_affine": [
    [-2.0, 0.0, 0.0, 106.80311584472656],
    [0.0, 1.8410097360610962, -0.7814622521400452, -67.00753021240234],
    [0.0, 0.7814622521400452, 1.8410097360610962, -67.70045471191406],
    [0.0, 0.0, 0.0, 1.0]
],
  "dcmmeta_reorient_transform": [
    [0.0, -1.0, 0.0, 109.0],
    [1.0, 0.0, 0.0, 0.0],
    [0.0, 0.0, 1.0, 0.0],
    [0.0, 0.0, 0.0, 1.0]
],
  "dcmmeta_shape": [110, 110, 57, 107],
  "dcmmeta_slice_dim": 2,
  "dcmmeta_version": 0.6,
  "global": {
    "const": {
      "AcquisitionMatrix": [110, 0, 0, 110],
      "AngioFlag": "N",
      "BitsAllocated": 16,
      "BitsStored": 16,
      "BodyPartExamined": "BRAIN",
      "CardiacNumberOfImages": 1,
      "Columns": 880,
      "EchoNumbers": 1,
      "EchoTime": 76.8,
      "EchoTrainLength": 83,
      "FlipAngle": 78.0,
      "HighBit": 15,
      "ImageOrientationPatient": [1.0, 0.0, 0.0, 0.0, 0.92050485079851, -0.3907311347415],
      "ImagePositionPatient": [-876.80311942101, -842.45125875396, 318.34190893327],
      "ImageType": [
        "ORIGINAL",
        "PRIMARY",
        "DIFFUSION",
        "NONE",
        "MB",
        "ND",
        "MOSAIC"
],
      "ImagedNucleus": "1H",
      "ImagingFrequency": 123.258806,
      "InPlanePhaseEncodingDirection": "COL",
      "MRAcquisitionType": "2D",
      "MagneticFieldStrength": 3.0,
      "Manufacturer": "SIEMENS",
      "ManufacturerModelName": "Prisma_fit",
      "Modality": "MR",
      "NominalInterval": 0,
      "NumberOfAverages": 1.0,
      "NumberOfPhaseEncodingSteps": 83,
      "PercentPhaseFieldOfView": 100.0,
      "PercentSampling": 100.0,
      "PerformedProcedureStepStartTime": "151819.552000",
      "PhotometricInterpretation": "MONOCHROME2",
      "PixelBandwidth": 1685.0,
      "PixelRepresentation": 0,
      "PixelSpacing": [2.0, 2.0],
      "ProtocolName": "dMRI_dir106_AP_test_cmrr",
      "RepetitionTime": 2243.0,
      "Rows": 880,
      "SAR": 0.13855953348667,
      "SamplesPerPixel": 1,
      "ScanOptions": [
        "PFP",
        "EXT"
],
      "ScanningSequence": "EP",
      "SequenceVariant": [
        "SK",
        "SS"
],
      "SeriesDescription": "dMRI_dir106_AP_test_cmrr",
      "SeriesNumber": 7,
      "SeriesTime": "153938.803000",
      "SliceLocation": -36.136664911838,
      "SliceThickness": 2.0,
      "SmallestImagePixelValue": 0,
      "SoftwareVersions": "syngo MR E11",
      "SpacingBetweenSlices": 2.0000000125988,
      "SpecificCharacterSet": "ISO_IR 100",
      "StudyID": "1",
      "StudyTime": "151819.473000",
      "TransmitCoilName": "Body",
      "VariableFlipAngleFlag": "N",
      "WindowCenterWidthExplanation": "Algo1",
      "dBdt": 0.0},
    "slices": {}
  },
  "time": {
    "samples": {
      "AcquisitionNumber": [1, 2, 3, 4, 5, 6, 7, 8, 9, 10, 11, 12, 13, 14, 15, 16, 17, 18, 19, 20, 21, 22, 23, 24, 25, 26, 27, 28, 29, 30, 31, 32, 33, 34, 35, 36, 37, 38, 39, 40, 41, 42, 43, 44, 45, 46, 47, 48, 49, 50, 51, 52, 53, 54, 55, 56, 57, 58, 59, 60, 61, 62, 63, 64, 65, 66, 67, 68, 69, 70, 71, 72, 73, 74, 75, 76, 77, 78, 79, 80, 81, 82, 83, 84, 85, 86, 87, 88, 89, 90, 91, 92, 93, 94, 95, 96, 97, 98, 99, 100, 101, 102, 103, 104, 105, 106, 107],
      "AcquisitionTime": ["153845.562500", "153847.805000", "153850.050000", "153852.292500", "153854.535000", "153856.777500", "153859.020000", "153901.265000", "153903.507500", "153905.750000", "153907.992500", "153910.235000", "153912.480000", "153914.722500", "153916.965000", "153919.207500", "153921.450000", "153923.695000", "153925.937500", "153928.180000", "153930.422500", "153932.665000", "153934.910000", "153937.152500", "153939.395000", "153941.637500", "153943.880000", "153946.125000", "153948.367500", "153950.610000", "153952.852500", "153955.095000", "153957.340000", "153959.582500", "154001.825000", "154004.067500", "154006.310000", "154008.555000", "154010.797500", "154013.040000", "154015.282500", "154017.525000", "154019.770000", "154022.012500", "154024.255000", "154026.497500", "154028.740000", "154030.985000", "154033.227500", "154035.470000", "154037.712500", "154039.955000", "154042.200000", "154044.442500", "154046.685000", "154048.927500", "154051.170000", "154053.415000", "154055.657500", "154057.900000", "154100.142500", "154102.385000", "154104.630000", "154106.872500", "154109.115000", "154111.357500", "154113.600000", "154115.845000", "154118.087500", "154120.330000", "154122.572500", "154124.815000", "154127.060000", "154129.302500", "154131.545000", "154133.787500", "154136.030000", "154138.275000", "154140.517500", "154142.760000", "154145.002500", "154147.245000", "154149.490000", "154151.732500", "154153.975000", "154156.217500", "154158.460000", "154200.705000", "154202.947500", "154205.190000", "154207.432500", "154209.675000", "154211.920000", "154214.162500", "154216.405000", "154218.647500", "154220.890000", "154223.135000", "154225.377500", "154227.620000", "154229.862500", "154232.105000", "154234.350000", "154236.592500", "154238.835000", "154241.077500", "154243.320000"],
      "ContentTime": ["153938.806000", "153938.809000", "153938.812000", "153938.815000", "153938.818000", "153938.821000", "153938.824000", "153938.827000", "153938.830000", "153938.833000", "153938.837000", "153938.840000", "153938.850000", "153938.853000", "153938.856000", "153938.859000", "153938.862000", "153938.865000", "153938.869000", "153938.872000", "153938.875000", "153938.878000", "153938.881000", "154038.750000", "154038.753000", "154038.756000", "154038.759000", "154038.763000", "154038.770000", "154038.773000", "154038.776000", "154038.779000", "154038.782000", "154038.785000", "154038.788000", "154038.791000", "154038.794000", "154038.797000", "154038.800000", "154038.803000", "154038.806000", "154038.809000", "154038.812000", "154038.815000", "154038.818000", "154038.821000", "154038.824000", "154038.827000", "154038.830000", "154038.833000", "154138.751000", "154138.754000", "154138.757000", "154138.761000", "154138.764000", "154138.774000", "154138.777000", "154138.780000", "154138.783000", "154138.786000", "154138.789000", "154138.792000", "154138.795000", "154138.798000", "154138.801000", "154138.804000", "154138.807000", "154138.810000", "154138.813000", "154138.816000", "154138.820000", "154138.823000", "154138.826000", "154138.829000", "154138.832000", "154138.835000", "154218.750000", "154218.753000", "154218.757000", "154218.760000", "154218.763000", "154218.766000", "154218.769000", "154218.772000", "154218.775000", "154218.778000", "154218.781000", "154218.784000", "154218.787000", "154218.790000", "154218.793000", "154218.796000", "154218.799000", "154218.802000", "154248.608000", "154248.611000", "154248.614000", "154248.617000", "154248.620000", "154248.623000", "154248.626000", "154248.629000", "154248.632000", "154248.635000", "154248.638000", "154248.641000", "154248.644000"],
      "InstanceCreationTime": ["153938.806000", "153938.809000", "153938.812000", "153938.815000", "153938.818000", "153938.821000", "153938.824000", "153938.827000", "153938.830000", "153938.833000", "153938.837000", "153938.840000", "153938.850000", "153938.853000", "153938.856000", "153938.859000", "153938.862000", "153938.865000", "153938.869000", "153938.872000", "153938.875000", "153938.878000", "153938.881000", "154038.750000", "154038.753000", "154038.756000", "154038.759000", "154038.763000", "154038.770000", "154038.773000", "154038.776000", "154038.779000", "154038.782000", "154038.785000", "154038.788000", "154038.791000", "154038.794000", "154038.797000", "154038.800000", "154038.803000", "154038.806000", "154038.809000", "154038.812000", "154038.815000", "154038.818000", "154038.821000", "154038.824000", "154038.827000", "154038.830000", "154038.833000", "154138.751000", "154138.754000", "154138.757000", "154138.761000", "154138.764000", "154138.774000", "154138.777000", "154138.780000", "154138.783000", "154138.786000", "154138.789000", "154138.792000", "154138.795000", "154138.798000", "154138.801000", "154138.804000", "154138.807000", "154138.810000", "154138.813000", "154138.816000", "154138.820000", "154138.823000", "154138.826000", "154138.829000", "154138.832000", "154138.835000", "154218.750000", "154218.753000", "154218.757000", "154218.760000", "154218.763000", "154218.766000", "154218.769000", "154218.772000", "154218.775000", "154218.778000", "154218.781000", "154218.784000", "154218.787000", "154218.790000", "154218.793000", "154218.796000", "154218.799000", "154218.802000", "154248.608000", "154248.611000", "154248.614000", "154248.617000", "154248.620000", "154248.623000", "154248.626000", "154248.629000", "154248.632000", "154248.635000", "154248.638000", "154248.641000", "154248.644000"],
      "InstanceNumber": [1, 2, 3, 4, 5, 6, 7, 8, 9, 10, 11, 12, 13, 14, 15, 16, 17, 18, 19, 20, 21, 22, 23, 24, 25, 26, 27, 28, 29, 30, 31, 32, 33, 34, 35, 36, 37, 38, 39, 40, 41, 42, 43, 44, 45, 46, 47, 48, 49, 50, 51, 52, 53, 54, 55, 56, 57, 58, 59, 60, 61, 62, 63, 64, 65, 66, 67, 68, 69, 70, 71, 72, 73, 74, 75, 76, 77, 78, 79, 80, 81, 82, 83, 84, 85, 86, 87, 88, 89, 90, 91, 92, 93, 94, 95, 96, 97, 98, 99, 100, 101, 102, 103, 104, 105, 106, 107],
      "LargestImagePixelValue": [38853, 38868, 12128, 6448, 12153, 12182, 19759, 7024, 6345, 6094, 12897, 19652, 6736, 6504, 6100, 6635, 11357, 6136, 6599, 5885, 7115, 36813, 11359, 7690, 12216, 11278, 6133, 6500, 6348, 7322, 21364, 6494, 12010, 6791, 6199, 20435, 6394, 7289, 11873, 6253, 6375, 37149, 7147, 6121, 6503, 21017, 12138, 6656, 5982, 11957, 6587, 11884, 11676, 6426, 20125, 11322, 6500, 12103, 6931, 6416, 11808, 38661, 11872, 5959, 6766, 5721, 6844, 19445, 11873, 10944, 6055, 6755, 6762, 6968, 12134, 6658, 7215, 7116, 12209, 12096, 6908, 37000, 11509, 7200, 6193, 12158, 11671, 6182, 11542, 7028, 6923, 5992, 12500, 5955, 6161, 5925, 19203, 11925, 6855, 11408, 11921, 37526, 6436, 6156, 11672, 6600, 7218],
      "SequenceName": [
 "ep_b5#1",
 "ep_b5#1",
 "ep_b1000#2",
 "ep_b2005#3",
 "ep_b1000#4",
 "ep_b995#5",
 "ep_b300#6",
 "ep_b1995#7",
 "ep_b2000#8",
 "ep_b2000#9",
 "ep_b995#10",
 "ep_b300#11",
 "ep_b1990#12",
 "ep_b2005#13",
 "ep_b2000#14",
 "ep_b2000#15",
 "ep_b1000#16",
 "ep_b2000#17",
 "ep_b2000#18",
 "ep_b1995#19",
 "ep_b1990#20",
 "ep_b5#21",
 "ep_b995#22",
 "ep_b1995#23",
 "ep_b1000#24",
 "ep_b1000#25",
 "ep_b2000#26",
 "ep_b1995#27",
 "ep_b1990#28",
 "ep_b1995#29",
 "ep_b300#30",
 "ep_b2005#31",
 "ep_b1005#32",
 "ep_b2000#33",
 "ep_b2000#34",
 "ep_b300#35",
 "ep_b2005#36",
 "ep_b1995#37",
 "ep_b1005#38",
 "ep_b2000#39",
 "ep_b2005#40",
 "ep_b5#41",
 "ep_b1995#42",
 "ep_b2005#43",
 "ep_b1995#44",
 "ep_b305#45",
 "ep_b1005#46",
 "ep_b2005#47",
 "ep_b2000#48",
 "ep_b1005#49",
 "ep_b2000#50",
 "ep_b995#51",
 "ep_b1000#52",
 "ep_b1995#53",
 "ep_b300#54",
 "ep_b1000#55",
 "ep_b2000#56",
 "ep_b1000#57",
 "ep_b2010#58",
 "ep_b2000#59",
 "ep_b1000#60",
 "ep_b5#61",
 "ep_b1000#62",
 "ep_b1995#63",
 "ep_b2000#64",
 "ep_b2005#65",
 "ep_b2010#66",
 "ep_b300#67",
 "ep_b1005#68",
 "ep_b1000#69",
 "ep_b2005#70",
 "ep_b1995#71",
 "ep_b2005#72",
 "ep_b2005#73",
 "ep_b1005#74",
 "ep_b2000#75",
 "ep_b2005#76",
 "ep_b2000#77",
 "ep_b1005#78",
 "ep_b1000#79",
 "ep_b1995#80",
 "ep_b5#81",
 "ep_b995#82",
 "ep_b2005#83",
 "ep_b2005#84",
 "ep_b995#85",
 "ep_b1000#86",
 "ep_b1995#87",
 "ep_b1005#88",
 "ep_b2005#89",
 "ep_b2005#90",
 "ep_b1995#91",
 "ep_b1005#92",
 "ep_b2005#93",
 "ep_b2000#94",
 "ep_b1995#95",
 "ep_b300#96",
 "ep_b995#97",
 "ep_b2000#98",
 "ep_b1000#99",
 "ep_b995#100",
 "ep_b5#101",
 "ep_b2005#102",
 "ep_b2005#103",
 "ep_b1000#104",
 "ep_b2005#105",
 "ep_b1995#106"
],
      "TriggerTime": [12837.5, 15080.0, 17325.0, 19567.5, 21810.0, 24052.5, 26295.0, 28540.0, 30782.5, 33025.0, 35267.5, 37510.0, 39755.0, 41997.5, 44240.0, 46482.5, 48725.0, 50970.0, 53212.5, 55455.0, 57697.5, 59940.0, 62185.0, 64427.5, 66670.0, 68912.5, 71155.0, 73400.0, 75642.5, 77885.0, 80127.5, 82370.0, 84615.0, 86857.5, 89100.0, 91342.5, 93585.0, 95830.0, 98072.5, 100315.0, 102557.5, 104800.0, 107045.0, 109287.5, 111530.0, 113772.5, 116015.0, 118260.0, 120502.5, 122745.0, 124987.5, 127230.0, 129475.0, 131717.5, 133960.0, 136202.5, 138445.0, 140690.0, 142932.5, 145175.0, 147417.5, 149660.0, 151905.0, 154147.5, 156390.0, 158632.5, 160875.0, 163120.0, 165362.5, 167605.0, 169847.5, 172090.0, 174335.0, 176577.5, 178820.0, 181062.5, 183305.0, 185550.0, 187792.5, 190035.0, 192277.5, 194520.0, 196765.0, 199007.5, 201250.0, 203492.5, 205735.0, 207980.0, 210222.5, 212465.0, 214707.5, 216950.0, 219195.0, 221437.5, 223680.0, 225922.5, 228165.0, 230410.0, 232652.5, 234895.0, 237137.5, 239380.0, 241625.0, 243867.5, 246110.0, 248352.5, 250595.0],
      "WindowCenter": [6974.0, 6980.0, 3280.0, 2096.0, 3244.0, 3233.0, 5080.0, 2099.0, 2080.0, 2061.0, 3285.0, 5068.0, 2070.0, 2058.0, 2050.0, 2095.0, 3216.0, 2083.0, 2118.0, 2061.0, 2080.0, 6911.0, 3229.0, 2123.0, 3266.0, 3190.0, 2053.0, 2073.0, 2073.0, 2078.0, 5100.0, 2058.0, 3225.0, 2065.0, 2063.0, 5062.0, 2065.0, 2082.0, 3202.0, 2077.0, 2069.0, 6817.0, 2105.0, 2047.0, 2066.0, 5041.0, 3241.0, 2057.0, 2089.0, 3235.0, 2063.0, 3225.0, 3249.0, 2095.0, 5010.0, 3220.0, 2068.0, 3273.0, 2099.0, 2102.0, 3220.0, 6866.0, 3221.0, 2034.0, 2132.0, 2010.0, 2072.0, 5016.0, 3214.0, 3160.0, 2073.0, 2080.0, 2087.0, 2120.0, 3208.0, 2101.0, 2117.0, 2058.0, 3219.0, 3222.0, 2075.0, 6852.0, 3210.0, 2098.0, 2020.0, 3210.0, 3228.0, 2033.0, 3195.0, 2100.0, 2115.0, 2060.0, 3267.0, 2041.0, 2097.0, 2053.0, 5005.0, 3229.0, 2065.0, 3201.0, 3207.0, 6865.0, 2045.0, 2035.0, 3208.0, 2059.0, 2114.0],
      "WindowWidth": [15220.0, 15221.0, 7594.0, 5185.0, 7520.0, 7490.0, 11148.0, 5164.0, 5154.0, 5108.0, 7598.0, 11129.0, 5111.0, 5091.0, 5095.0, 5177.0, 7473.0, 5158.0, 5222.0, 5136.0, 5126.0, 15051.0, 7503.0, 5205.0, 7568.0, 7425.0, 5110.0, 5123.0, 5124.0, 5123.0, 11175.0, 5105.0, 7476.0, 5117.0, 5110.0, 11115.0, 5114.0, 5129.0, 7433.0, 5139.0, 5110.0, 14852.0, 5182.0, 5078.0, 5115.0, 11064.0, 7510.0, 5088.0, 5160.0, 7500.0, 5115.0, 7482.0, 7529.0, 5184.0, 11017.0, 7475.0, 5132.0, 7573.0, 5163.0, 5190.0, 7471.0, 14945.0, 7473.0, 5051.0, 5249.0, 5013.0, 5111.0, 11028.0, 7460.0, 7367.0, 5126.0, 5138.0, 5149.0, 5222.0, 7448.0, 5183.0, 5208.0, 5098.0, 7463.0, 7479.0, 5126.0, 14921.0, 7451.0, 5158.0, 5027.0, 7445.0, 7499.0, 5045.0, 7431.0, 5167.0, 5208.0, 5100.0, 7553.0, 5076.0, 5187.0, 5104.0, 11004.0, 7493.0, 5122.0, 7442.0, 7447.0, 14948.0, 5069.0, 5050.0, 7449.0, 5102.0, 5196.0]
    },
    "slices": {}
  }
}