{
  "AcquisitionMatrixPE": 110,
  "AcquisitionNumber": 1,
  "AcquisitionTime": "16:09:35.200000",
  "BandwidthPerPixelPhaseEncode": 12.987,
  "BaseResolution": 110,
  "BodyPartExamined": "BRAIN",
  "CoilCombinationMethod": "Sum of Squares",
  "ConsistencyInfo": "N4_VE11C_LATEST_20160120",
  "ConversionSoftware": "dcm2niix",
  "ConversionSoftwareVersion": "v1.0.20211006",
  "DerivedVendorReportedEchoSpacing": 0.000700001,
  "DeviceSerialNumber": "167006",
  "DiffusionScheme": "Monopolar",
  "DwellTime": 2.7e-06,
  "EchoTime": 0.0768,
  "EchoTrainLength": 83,
  "EffectiveEchoSpacing": 0.000700001,
  "FlipAngle": 78,
  "HeudiconvVersion": "0.11.3.post9+gc939bf8",
  "ImageComments": "Unaliased MB3/PE3/LB SENSE1+",
  "ImageOrientationPatientDICOM": [0.999848, -0.0163999, 0.00596906, 0.0174524, 0.93955, -0.341968],
  "ImageOrientationText": "Tra>Cor(-20.0)",
  "ImageType": [
    "ORIGINAL",
    "PRIMARY",
    "DIFFUSION",
    "NONE",
    "MB",
    "ND",
    "MOSAIC"
],
  "ImagingFrequency": 123.259,
  "InPlanePhaseEncodingDirectionDICOM": "COL",
  "InstitutionAddress": "Chemin Queen-Mary 4565,Montreal,District,CA,H3W 1W5",
  "InstitutionName": "IUGM",
  "InstitutionalDepartmentName": "Department",
  "MRAcquisitionType": "2D",
  "MagneticFieldStrength": 3,
  "Manufacturer": "Siemens",
  "ManufacturersModelName": "Prisma_fit",
  "MatrixCoilMode": "SENSE",
  "Modality": "MR",
  "MultibandAccelerationFactor": 3,
  "PartialFourier": 0.75,
  "PatientPosition": "HFS",
  "PercentPhaseFOV": 100,
  "PercentSampling": 100,
  "PhaseEncodingDirection": "j",
  "PhaseEncodingSteps": 83,
  "PhaseResolution": 1,
  "PixelBandwidth": 1685,
  "ProcedureStepDescription": "anat^generic",
  "ProtocolName": "dMRI_dir106_PA_test_cmrr",
  "PulseSequenceDetails": "%CustomerSeq%\\cmrr_mbep2d_diff",
  "ReceiveCoilActiveElements": "HC1-7",
  "ReceiveCoilName": "HeadNeck_64",
  "ReconMatrixPE": 110,
  "RepetitionTime": 2.243,
  "SAR": 0.131205,
  "ScanOptions": "PFP\\EXT",
  "ScanningSequence": "EP",
  "SequenceName": "ep_b0",
  "SequenceVariant": "SK\\SS",
  "SeriesDescription": "dMRI_dir106_PA_test_cmrr",
  "SeriesNumber": 14,
  "ShimSetting": [624, -7272, -8834, 644, 27, -255, -14, 8],
  "SliceThickness": 2,
  "SliceTiming": [0, 1.17, 0.115, 1.285, 0.2325, 1.4025, 0.35, 1.52, 0.4675, 1.6375, 0.585, 1.755, 0.7, 1.87, 0.8175, 1.9875, 0.935, 2.105, 1.0525, 0, 1.17, 0.115, 1.285, 0.2325, 1.4025, 0.35, 1.52, 0.4675, 1.6375, 0.585, 1.755, 0.7, 1.87, 0.8175, 1.9875, 0.935, 2.105, 1.0525, 0, 1.17, 0.115, 1.285, 0.2325, 1.4025, 0.35, 1.52, 0.4675, 1.6375, 0.585, 1.755, 0.7, 1.87, 0.8175, 1.9875, 0.935, 2.105, 1.0525],
  "SoftwareVersions": "syngo MR E11",
  "SpacingBetweenSlices": 2,
  "StationName": "MRC35049",
  "TotalReadoutTime": 0.0763001,
  "TxRefAmp": 227.27,
  "WipMemBlock": "8c2fae35-2c9f-4a81-b6a3-a81f9881c6ae||Sequence: R017 ve11c/master r/75a17815+; Jun 28 2022 16:41:33 by eja",
  "dcmmeta_affine": [
    [-1.9996954202651978, 0.034904781728982925, -1.2888624389972847e-08, 107.34292602539062],
    [0.032799772918224335, 1.8790990114212036, -0.6840402483940125, -76.45111846923828],
    [0.011938126757740974, 0.6839361190795898, 1.879385232925415, -68.9637222290039],
    [0.0, 0.0, 0.0, 1.0]
],
  "dcmmeta_reorient_transform": [
    [0.0, -1.0, 0.0, 109.0],
    [1.0, 0.0, 0.0, 0.0],
    [0.0, 0.0, 1.0, 0.0],
    [0.0, 0.0, 0.0, 1.0]
],
  "dcmmeta_shape": [110, 110, 57, 107],
  "dcmmeta_slice_dim": 2,
  "dcmmeta_version": 0.6,
  "global": {
    "const": {
      "AcquisitionMatrix": [110, 0, 0, 110],
      "AngioFlag": "N",
      "BitsAllocated": 16,
      "BitsStored": 16,
      "BodyPartExamined": "BRAIN",
      "CardiacNumberOfImages": 1,
      "Columns": 880,
      "EchoNumbers": 1,
      "EchoTime": 76.8,
      "EchoTrainLength": 83,
      "FlipAngle": 78.0,
      "HighBit": 15,
      "ImageOrientationPatient": [0.99984769541472, -0.016399885862, 0.00596906337616, 0.01745239163769, 0.93954950247002, -0.3419680488503],
      "ImagePositionPatient": [-894.4686161054, -839.19587755036, 264.30453255598],
      "ImageType": [
        "ORIGINAL",
        "PRIMARY",
        "DIFFUSION",
        "NONE",
        "MB",
        "ND",
        "MOSAIC"
],
      "ImagedNucleus": "1H",
      "ImagingFrequency": 123.258789,
      "InPlanePhaseEncodingDirection": "COL",
      "LargestImagePixelValue": 4095,
      "MRAcquisitionType": "2D",
      "MagneticFieldStrength": 3.0,
      "Manufacturer": "SIEMENS",
      "ManufacturerModelName": "Prisma_fit",
      "Modality": "MR",
      "NominalInterval": 0,
      "NumberOfAverages": 1.0,
      "NumberOfPhaseEncodingSteps": 83,
      "PercentPhaseFieldOfView": 100.0,
      "PercentSampling": 100.0,
      "PerformedProcedureStepStartTime": "151323.770000",
      "PhotometricInterpretation": "MONOCHROME2",
      "PixelBandwidth": 1685.0,
      "PixelRepresentation": 0,
      "PixelSpacing": [2.0, 2.0],
      "ProtocolName": "dMRI_dir106_PA_test_cmrr",
      "RepetitionTime": 2243.0,
      "RescaleIntercept": -4096.0,
      "RescaleSlope": 2.0,
      "RescaleType": "US",
      "Rows": 880,
      "SAR": 0.13120537788115,
      "SamplesPerPixel": 1,
      "ScanOptions": [
        "PFP",
        "EXT"
],
      "ScanningSequence": "EP",
      "SequenceVariant": [
        "SK",
        "SS"
],
      "SeriesDescription": "dMRI_dir106_PA_test_cmrr",
      "SeriesNumber": 14,
      "SeriesTime": "161038.157000",
      "SliceLocation": -38.656878069843,
      "SliceThickness": 2.0,
      "SmallestImagePixelValue": 0,
      "SoftwareVersions": "syngo MR E11",
      "SpacingBetweenSlices": 1.9999999351648,
      "SpecificCharacterSet": "ISO_IR 100",
      "StudyID": "1",
      "StudyTime": "151323.694000",
      "TransmitCoilName": "Body",
      "VariableFlipAngleFlag": "N",
      "WindowCenterWidthExplanation": "Algo1",
      "dBdt": 0.0},
    "slices": {}
  },
  "time": {
    "samples": {
      "AcquisitionNumber": [1, 2, 3, 4, 5, 6, 7, 8, 9, 10, 11, 12, 13, 14, 15, 16, 17, 18, 19, 20, 21, 22, 23, 24, 25, 26, 27, 28, 29, 30, 31, 32, 33, 34, 35, 36, 37, 38, 39, 40, 41, 42, 43, 44, 45, 46, 47, 48, 49, 50, 51, 52, 53, 54, 55, 56, 57, 58, 59, 60, 61, 62, 63, 64, 65, 66, 67, 68, 69, 70, 71, 72, 73, 74, 75, 76, 77, 78, 79, 80, 81, 82, 83, 84, 85, 86, 87, 88, 89, 90, 91, 92, 93, 94, 95, 96, 97, 98, 99, 100, 101, 102, 103, 104, 105, 106, 107],
      "AcquisitionTime": ["160935.200000", "160937.442500", "160939.685000", "160941.927500", "160944.170000", "160946.415000", "160948.657500", "160950.900000", "160953.142500", "160955.385000", "160957.630000", "160959.872500", "161002.115000", "161004.357500", "161006.600000", "161008.845000", "161011.087500", "161013.330000", "161015.572500", "161017.815000", "161020.060000", "161022.302500", "161024.545000", "161026.787500", "161029.030000", "161031.275000", "161033.517500", "161035.760000", "161038.002500", "161040.245000", "161042.490000", "161044.732500", "161046.975000", "161049.217500", "161051.460000", "161053.705000", "161055.947500", "161058.190000", "161100.432500", "161102.675000", "161104.920000", "161107.162500", "161109.405000", "161111.647500", "161113.890000", "161116.135000", "161118.377500", "161120.620000", "161122.862500", "161125.105000", "161127.350000", "161129.592500", "161131.835000", "161134.077500", "161136.320000", "161138.565000", "161140.807500", "161143.050000", "161145.292500", "161147.535000", "161149.780000", "161152.022500", "161154.265000", "161156.507500", "161158.750000", "161200.995000", "161203.237500", "161205.480000", "161207.722500", "161209.965000", "161212.210000", "161214.452500", "161216.695000", "161218.937500", "161221.180000", "161223.425000", "161225.667500", "161227.910000", "161230.152500", "161232.395000", "161234.640000", "161236.882500", "161239.125000", "161241.367500", "161243.610000", "161245.855000", "161248.097500", "161250.340000", "161252.582500", "161254.825000", "161257.070000", "161259.312500", "161301.555000", "161303.797500", "161306.040000", "161308.285000", "161310.527500", "161312.770000", "161315.012500", "161317.255000", "161319.500000", "161321.742500", "161323.985000", "161326.227500", "161328.470000", "161330.715000", "161332.957500"],
      "ContentTime": ["161038.160000", "161038.163000", "161038.167000", "161038.170000", "161038.173000", "161038.176000", "161038.179000", "161038.183000", "161038.186000", "161038.189000", "161038.192000", "161038.210000", "161038.213000", "161038.216000", "161038.219000", "161038.222000", "161038.225000", "161038.229000", "161038.232000", "161038.235000", "161038.238000", "161038.241000", "161038.244000", "161038.247000", "161038.251000", "161038.254000", "161038.257000", "161138.100000", "161138.103000", "161138.107000", "161138.110000", "161138.113000", "161138.116000", "161138.119000", "161138.123000", "161138.126000", "161138.129000", "161138.132000", "161138.135000", "161138.138000", "161138.142000", "161138.145000", "161138.148000", "161138.151000", "161138.154000", "161138.157000", "161138.161000", "161138.164000", "161138.167000", "161138.170000", "161138.173000", "161138.177000", "161138.180000", "161138.183000", "161238.097000", "161238.101000", "161238.104000", "161238.107000", "161238.110000", "161238.113000", "161238.116000", "161238.120000", "161238.123000", "161238.126000", "161238.129000", "161238.132000", "161238.135000", "161238.139000", "161238.142000", "161238.145000", "161238.148000", "161238.151000", "161238.154000", "161238.158000", "161238.161000", "161238.164000", "161238.167000", "161238.171000", "161238.174000", "161238.177000", "161238.180000", "161258.027000", "161258.030000", "161258.033000", "161258.036000", "161258.040000", "161258.043000", "161258.046000", "161258.049000", "161258.052000", "161337.878000", "161337.882000", "161337.885000", "161337.888000", "161337.891000", "161337.895000", "161337.898000", "161337.901000", "161337.904000", "161337.907000", "161337.910000", "161337.913000", "161337.917000", "161337.920000", "161337.923000", "161337.926000", "161337.929000"],
      "InstanceCreationTime": ["161038.160000", "161038.163000", "161038.167000", "161038.170000", "161038.173000", "161038.176000", "161038.179000", "161038.183000", "161038.186000", "161038.189000", "161038.192000", "161038.210000", "161038.213000", "161038.216000", "161038.219000", "161038.222000", "161038.225000", "161038.229000", "161038.232000", "161038.235000", "161038.238000", "161038.241000", "161038.244000", "161038.247000", "161038.251000", "161038.254000", "161038.257000", "161138.100000", "161138.103000", "161138.107000", "161138.110000", "161138.113000", "161138.116000", "161138.119000", "161138.123000", "161138.126000", "161138.129000", "161138.132000", "161138.135000", "161138.138000", "161138.142000", "161138.145000", "161138.148000", "161138.151000", "161138.154000", "161138.157000", "161138.161000", "161138.164000", "161138.167000", "161138.170000", "161138.173000", "161138.177000", "161138.180000", "161138.183000", "161238.097000", "161238.101000", "161238.104000", "161238.107000", "161238.110000", "161238.113000", "161238.116000", "161238.120000", "161238.123000", "161238.126000", "161238.129000", "161238.132000", "161238.135000", "161238.139000", "161238.142000", "161238.145000", "161238.148000", "161238.151000", "161238.154000", "161238.158000", "161238.161000", "161238.164000", "161238.167000", "161238.171000", "161238.174000", "161238.177000", "161238.180000", "161258.027000", "161258.030000", "161258.033000", "161258.036000", "161258.040000", "161258.043000", "161258.046000", "161258.049000", "161258.052000", "161337.878000", "161337.882000", "161337.885000", "161337.888000", "161337.891000", "161337.895000", "161337.898000", "161337.901000", "161337.904000", "161337.907000", "161337.910000", "161337.913000", "161337.917000", "161337.920000", "161337.923000", "161337.926000", "161337.929000"],
      "InstanceNumber": [1, 2, 3, 4, 5, 6, 7, 8, 9, 10, 11, 12, 13, 14, 15, 16, 17, 18, 19, 20, 21, 22, 23, 24, 25, 26, 27, 28, 29, 30, 31, 32, 33, 34, 35, 36, 37, 38, 39, 40, 41, 42, 43, 44, 45, 46, 47, 48, 49, 50, 51, 52, 53, 54, 55, 56, 57, 58, 59, 60, 61, 62, 63, 64, 65, 66, 67, 68, 69, 70, 71, 72, 73, 74, 75, 76, 77, 78, 79, 80, 81, 82, 83, 84, 85, 86, 87, 88, 89, 90, 91, 92, 93, 94, 95, 96, 97, 98, 99, 100, 101, 102, 103, 104, 105, 106, 107],
      "SequenceName": [
 "ep_b0",
 "ep_b0",
 "ep_b1000#2",
 "ep_b2000#3",
 "ep_b1000#4",
 "ep_b1000#5",
 "ep_b300#6",
 "ep_b2000#7",
 "ep_b2000#8",
 "ep_b2000#9",
 "ep_b1000#10",
 "ep_b300#11",
 "ep_b2000#12",
 "ep_b2000#13",
 "ep_b2000#14",
 "ep_b2000#15",
 "ep_b1000#16",
 "ep_b2000#17",
 "ep_b2000#18",
 "ep_b2000#19",
 "ep_b2000#20",
 "ep_b0",
 "ep_b1000#22",
 "ep_b2000#23",
 "ep_b1000#24",
 "ep_b1000#25",
 "ep_b2000#26",
 "ep_b2000#27",
 "ep_b2000#28",
 "ep_b2000#29",
 "ep_b300#30",
 "ep_b2000#31",
 "ep_b1000#32",
 "ep_b2000#33",
 "ep_b2000#34",
 "ep_b300#35",
 "ep_b2000#36",
 "ep_b2000#37",
 "ep_b1000#38",
 "ep_b2000#39",
 "ep_b2000#40",
 "ep_b0",
 "ep_b2000#42",
 "ep_b2000#43",
 "ep_b2000#44",
 "ep_b300#45",
 "ep_b1000#46",
 "ep_b2000#47",
 "ep_b2000#48",
 "ep_b1000#49",
 "ep_b2000#50",
 "ep_b1000#51",
 "ep_b1000#52",
 "ep_b2000#53",
 "ep_b300#54",
 "ep_b1000#55",
 "ep_b2000#56",
 "ep_b1000#57",
 "ep_b2000#58",
 "ep_b2000#59",
 "ep_b1000#60",
 "ep_b0",
 "ep_b1000#62",
 "ep_b2000#63",
 "ep_b2000#64",
 "ep_b2000#65",
 "ep_b2000#66",
 "ep_b300#67",
 "ep_b1000#68",
 "ep_b1000#69",
 "ep_b2000#70",
 "ep_b2000#71",
 "ep_b2000#72",
 "ep_b2000#73",
 "ep_b1000#74",
 "ep_b2000#75",
 "ep_b2000#76",
 "ep_b2000#77",
 "ep_b1000#78",
 "ep_b1000#79",
 "ep_b2000#80",
 "ep_b0",
 "ep_b1000#82",
 "ep_b2000#83",
 "ep_b2000#84",
 "ep_b1000#85",
 "ep_b1000#86",
 "ep_b2000#87",
 "ep_b1000#88",
 "ep_b2000#89",
 "ep_b2000#90",
 "ep_b2000#91",
 "ep_b1000#92",
 "ep_b2000#93",
 "ep_b2000#94",
 "ep_b2000#95",
 "ep_b300#96",
 "ep_b1000#97",
 "ep_b2000#98",
 "ep_b1000#99",
 "ep_b1000#100",
 "ep_b0",
 "ep_b2000#102",
 "ep_b2000#103",
 "ep_b1000#104",
 "ep_b2000#105",
 "ep_b2000#106"
],
      "TriggerTime": [12835.0, 15080.0, 17322.5, 19565.0, 21807.5, 24050.0, 26295.0, 28537.5, 30780.0, 33022.5, 35265.0, 37510.0, 39752.5, 41995.0, 44237.5, 46480.0, 48725.0, 50967.5, 53210.0, 55452.5, 57695.0, 59940.0, 62182.5, 64425.0, 66667.5, 68910.0, 71155.0, 73397.5, 75640.0, 77882.5, 80125.0, 82370.0, 84612.5, 86855.0, 89097.5, 91340.0, 93585.0, 95827.5, 98070.0, 100312.5, 102555.0, 104800.0, 107042.5, 109285.0, 111527.5, 113770.0, 116015.0, 118257.5, 120500.0, 122742.5, 124985.0, 127230.0, 129472.5, 131715.0, 133957.5, 136200.0, 138445.0, 140687.5, 142930.0, 145172.5, 147415.0, 149660.0, 151902.5, 154145.0, 156387.5, 158630.0, 160875.0, 163117.5, 165360.0, 167602.5, 169845.0, 172090.0, 174332.5, 176575.0, 178817.5, 181060.0, 183305.0, 185547.5, 187790.0, 190032.5, 192275.0, 194520.0, 196762.5, 199005.0, 201247.5, 203490.0, 205735.0, 207977.5, 210220.0, 212462.5, 214705.0, 216950.0, 219192.5, 221435.0, 223677.5, 225920.0, 228165.0, 230407.5, 232650.0, 234892.5, 237135.0, 239380.0, 241622.5, 243865.0, 246107.5, 248350.0, 250595.0],
      "WindowCenter": [4706.0, 4708.0, 4770.0, 4628.0, 4618.0, 4906.0, 4798.0, 4544.0, 4716.0, 4602.0, 4872.0, 4718.0, 4974.0, 5000.0, 4784.0, 4614.0, 4830.0, 4704.0, 4582.0, 4732.0, 4648.0, 4638.0, 4938.0, 4652.0, 4740.0, 4648.0, 4720.0, 4878.0, 5012.0, 4658.0, 4810.0, 4660.0, 4758.0, 4626.0, 4804.0, 4708.0, 4906.0, 4564.0, 5008.0, 4656.0, 4898.0, 4670.0, 4592.0, 4664.0, 4910.0, 4810.0, 4394.0, 4764.0, 4776.0, 4818.0, 4738.0, 5060.0, 4752.0, 4852.0, 4654.0, 4756.0, 4704.0, 4600.0, 4976.0, 4736.0, 4962.0, 4868.0, 4692.0, 4880.0, 4512.0, 4846.0, 4614.0, 4728.0, 4680.0, 4906.0, 4826.0, 4574.0, 4688.0, 4448.0, 4850.0, 4404.0, 4532.0, 4638.0, 4704.0, 4628.0, 4552.0, 4710.0, 4990.0, 4930.0, 4808.0, 4626.0, 4766.0, 5108.0, 4924.0, 4452.0, 4488.0, 4944.0, 4690.0, 4878.0, 4648.0, 4810.0, 4734.0, 4382.0, 4670.0, 4726.0, 4498.0, 4806.0, 4752.0, 4944.0, 4790.0, 4634.0, 4556.0],
      "WindowWidth": [18328.0, 18332.0, 18572.0, 18602.0, 18460.0, 18684.0, 18532.0, 18426.0, 18688.0, 18488.0, 18772.0, 18498.0, 18890.0, 18984.0, 18698.0, 18528.0, 18702.0, 18632.0, 18454.0, 18710.0, 18494.0, 18270.0, 18874.0, 18528.0, 18572.0, 18460.0, 18696.0, 18718.0, 19068.0, 18532.0, 18518.0, 18604.0, 18600.0, 18564.0, 18706.0, 18400.0, 18914.0, 18482.0, 18846.0, 18526.0, 18758.0, 18302.0, 18444.0, 18580.0, 18916.0, 18616.0, 18204.0, 18654.0, 18596.0, 18704.0, 18688.0, 19052.0, 18520.0, 18838.0, 18388.0, 18574.0, 18660.0, 18408.0, 18958.0, 18634.0, 18750.0, 18494.0, 18500.0, 18866.0, 18350.0, 18824.0, 18512.0, 18474.0, 18540.0, 18764.0, 18640.0, 18478.0, 18576.0, 18304.0, 18714.0, 18224.0, 18468.0, 18568.0, 18586.0, 18524.0, 18482.0, 18340.0, 18908.0, 18906.0, 18736.0, 18462.0, 18676.0, 19154.0, 18798.0, 18338.0, 18340.0, 18838.0, 18486.0, 18912.0, 18492.0, 18794.0, 18472.0, 18174.0, 18648.0, 18572.0, 18320.0, 18432.0, 18672.0, 18996.0, 18606.0, 18572.0, 18430.0]
    },
    "slices": {}
  }
}