{
  "AcquisitionMatrixPE": 110,
  "AcquisitionNumber": 1,
  "AcquisitionTime": "16:09:35.200000",
  "BandwidthPerPixelPhaseEncode": 12.987,
  "BaseResolution": 110,
  "BodyPartExamined": "BRAIN",
  "CoilCombinationMethod": "Sum of Squares",
  "ConsistencyInfo": "N4_VE11C_LATEST_20160120",
  "ConversionSoftware": "dcm2niix",
  "ConversionSoftwareVersion": "v1.0.20211006",
  "DerivedVendorReportedEchoSpacing": 0.000700001,
  "DeviceSerialNumber": "167006",
  "DiffusionScheme": "Monopolar",
  "DwellTime": 2.7e-06,
  "EchoTime": 0.0768,
  "EchoTrainLength": 83,
  "EffectiveEchoSpacing": 0.000700001,
  "FlipAngle": 78,
  "HeudiconvVersion": "0.11.3.post9+gc939bf8",
  "ImageComments": "Unaliased MB3/PE3/LB SENSE1+",
  "ImageOrientationPatientDICOM": [0.999848, -0.0163999, 0.00596906, 0.0174524, 0.93955, -0.341968],
  "ImageOrientationText": "Tra>Cor(-20.0)",
  "ImageType": [
    "ORIGINAL",
    "PRIMARY",
    "DIFFUSION",
    "NONE",
    "MB",
    "ND",
    "MOSAIC"
],
  "ImagingFrequency": 123.259,
  "InPlanePhaseEncodingDirectionDICOM": "COL",
  "InstitutionAddress": "Chemin Queen-Mary 4565,Montreal,District,CA,H3W 1W5",
  "InstitutionName": "IUGM",
  "InstitutionalDepartmentName": "Department",
  "MRAcquisitionType": "2D",
  "MagneticFieldStrength": 3,
  "Manufacturer": "Siemens",
  "ManufacturersModelName": "Prisma_fit",
  "MatrixCoilMode": "SENSE",
  "Modality": "MR",
  "MultibandAccelerationFactor": 3,
  "PartialFourier": 0.75,
  "PatientPosition": "HFS",
  "PercentPhaseFOV": 100,
  "PercentSampling": 100,
  "PhaseEncodingDirection": "j",
  "PhaseEncodingSteps": 83,
  "PhaseResolution": 1,
  "PixelBandwidth": 1685,
  "ProcedureStepDescription": "anat^generic",
  "ProtocolName": "dMRI_dir106_PA_test_cmrr",
  "PulseSequenceDetails": "%CustomerSeq%\\cmrr_mbep2d_diff",
  "ReceiveCoilActiveElements": "HC1-7",
  "ReceiveCoilName": "HeadNeck_64",
  "ReconMatrixPE": 110,
  "RepetitionTime": 2.243,
  "SAR": 0.131205,
  "ScanOptions": "PFP\\EXT",
  "ScanningSequence": "EP",
  "SequenceName": "ep_b0",
  "SequenceVariant": "SK\\SS",
  "SeriesDescription": "dMRI_dir106_PA_test_cmrr",
  "SeriesNumber": 13,
  "ShimSetting": [624, -7272, -8834, 644, 27, -255, -14, 8],
  "SliceThickness": 2,
  "SliceTiming": [0, 1.17, 0.115, 1.285, 0.2325, 1.4025, 0.35, 1.52, 0.4675, 1.6375, 0.585, 1.755, 0.7, 1.87, 0.8175, 1.9875, 0.935, 2.105, 1.0525, 0, 1.17, 0.115, 1.285, 0.2325, 1.4025, 0.35, 1.52, 0.4675, 1.6375, 0.585, 1.755, 0.7, 1.87, 0.8175, 1.9875, 0.935, 2.105, 1.0525, 0, 1.17, 0.115, 1.285, 0.2325, 1.4025, 0.35, 1.52, 0.4675, 1.6375, 0.585, 1.755, 0.7, 1.87, 0.8175, 1.9875, 0.935, 2.105, 1.0525],
  "SoftwareVersions": "syngo MR E11",
  "SpacingBetweenSlices": 2,
  "StationName": "MRC35049",
  "TotalReadoutTime": 0.0763001,
  "TxRefAmp": 227.27,
  "WipMemBlock": "8c2fae35-2c9f-4a81-b6a3-a81f9881c6ae||Sequence: R017 ve11c/master r/75a17815+; Jun 28 2022 16:41:33 by eja",
  "dcmmeta_affine": [
    [-1.9996954202651978, 0.034904781728982925, -1.2888624389972847e-08, 107.34292602539062],
    [0.032799772918224335, 1.8790990114212036, -0.6840402483940125, -76.45111846923828],
    [0.011938126757740974, 0.6839361190795898, 1.879385232925415, -68.9637222290039],
    [0.0, 0.0, 0.0, 1.0]
],
  "dcmmeta_reorient_transform": [
    [0.0, -1.0, 0.0, 109.0],
    [1.0, 0.0, 0.0, 0.0],
    [0.0, 0.0, 1.0, 0.0],
    [0.0, 0.0, 0.0, 1.0]
],
  "dcmmeta_shape": [110, 110, 57, 107],
  "dcmmeta_slice_dim": 2,
  "dcmmeta_version": 0.6,
  "global": {
    "const": {
      "AcquisitionMatrix": [110, 0, 0, 110],
      "AngioFlag": "N",
      "BitsAllocated": 16,
      "BitsStored": 16,
      "BodyPartExamined": "BRAIN",
      "CardiacNumberOfImages": 1,
      "Columns": 880,
      "EchoNumbers": 1,
      "EchoTime": 76.8,
      "EchoTrainLength": 83,
      "FlipAngle": 78.0,
      "HighBit": 15,
      "ImageOrientationPatient": [0.99984769541472, -0.016399885862, 0.00596906337616, 0.01745239163769, 0.93954950247002, -0.3419680488503],
      "ImagePositionPatient": [-894.4686161054, -839.19587755036, 264.30453255598],
      "ImageType": [
        "ORIGINAL",
        "PRIMARY",
        "DIFFUSION",
        "NONE",
        "MB",
        "ND",
        "MOSAIC"
],
      "ImagedNucleus": "1H",
      "ImagingFrequency": 123.258789,
      "InPlanePhaseEncodingDirection": "COL",
      "MRAcquisitionType": "2D",
      "MagneticFieldStrength": 3.0,
      "Manufacturer": "SIEMENS",
      "ManufacturerModelName": "Prisma_fit",
      "Modality": "MR",
      "NominalInterval": 0,
      "NumberOfAverages": 1.0,
      "NumberOfPhaseEncodingSteps": 83,
      "PercentPhaseFieldOfView": 100.0,
      "PercentSampling": 100.0,
      "PerformedProcedureStepStartTime": "151323.770000",
      "PhotometricInterpretation": "MONOCHROME2",
      "PixelBandwidth": 1685.0,
      "PixelRepresentation": 0,
      "PixelSpacing": [2.0, 2.0],
      "ProtocolName": "dMRI_dir106_PA_test_cmrr",
      "RepetitionTime": 2243.0,
      "Rows": 880,
      "SAR": 0.13120537788115,
      "SamplesPerPixel": 1,
      "ScanOptions": [
        "PFP",
        "EXT"
],
      "ScanningSequence": "EP",
      "SequenceVariant": [
        "SK",
        "SS"
],
      "SeriesDescription": "dMRI_dir106_PA_test_cmrr",
      "SeriesNumber": 13,
      "SeriesTime": "161038.014000",
      "SliceLocation": -38.656878069843,
      "SliceThickness": 2.0,
      "SmallestImagePixelValue": 0,
      "SoftwareVersions": "syngo MR E11",
      "SpacingBetweenSlices": 1.9999999351648,
      "SpecificCharacterSet": "ISO_IR 100",
      "StudyID": "1",
      "StudyTime": "151323.694000",
      "TransmitCoilName": "Body",
      "VariableFlipAngleFlag": "N",
      "WindowCenterWidthExplanation": "Algo1",
      "dBdt": 0.0},
    "slices": {}
  },
  "time": {
    "samples": {
      "AcquisitionNumber": [1, 2, 3, 4, 5, 6, 7, 8, 9, 10, 11, 12, 13, 14, 15, 16, 17, 18, 19, 20, 21, 22, 23, 24, 25, 26, 27, 28, 29, 30, 31, 32, 33, 34, 35, 36, 37, 38, 39, 40, 41, 42, 43, 44, 45, 46, 47, 48, 49, 50, 51, 52, 53, 54, 55, 56, 57, 58, 59, 60, 61, 62, 63, 64, 65, 66, 67, 68, 69, 70, 71, 72, 73, 74, 75, 76, 77, 78, 79, 80, 81, 82, 83, 84, 85, 86, 87, 88, 89, 90, 91, 92, 93, 94, 95, 96, 97, 98, 99, 100, 101, 102, 103, 104, 105, 106, 107],
      "AcquisitionTime": ["160935.200000", "160937.442500", "160939.685000", "160941.927500", "160944.170000", "160946.415000", "160948.657500", "160950.900000", "160953.142500", "160955.385000", "160957.630000", "160959.872500", "161002.115000", "161004.357500", "161006.600000", "161008.845000", "161011.087500", "161013.330000", "161015.572500", "161017.815000", "161020.060000", "161022.302500", "161024.545000", "161026.787500", "161029.030000", "161031.275000", "161033.517500", "161035.760000", "161038.002500", "161040.245000", "161042.490000", "161044.732500", "161046.975000", "161049.217500", "161051.460000", "161053.705000", "161055.947500", "161058.190000", "161100.432500", "161102.675000", "161104.920000", "161107.162500", "161109.405000", "161111.647500", "161113.890000", "161116.135000", "161118.377500", "161120.620000", "161122.862500", "161125.105000", "161127.350000", "161129.592500", "161131.835000", "161134.077500", "161136.320000", "161138.565000", "161140.807500", "161143.050000", "161145.292500", "161147.535000", "161149.780000", "161152.022500", "161154.265000", "161156.507500", "161158.750000", "161200.995000", "161203.237500", "161205.480000", "161207.722500", "161209.965000", "161212.210000", "161214.452500", "161216.695000", "161218.937500", "161221.180000", "161223.425000", "161225.667500", "161227.910000", "161230.152500", "161232.395000", "161234.640000", "161236.882500", "161239.125000", "161241.367500", "161243.610000", "161245.855000", "161248.097500", "161250.340000", "161252.582500", "161254.825000", "161257.070000", "161259.312500", "161301.555000", "161303.797500", "161306.040000", "161308.285000", "161310.527500", "161312.770000", "161315.012500", "161317.255000", "161319.500000", "161321.742500", "161323.985000", "161326.227500", "161328.470000", "161330.715000", "161332.957500"],
      "ContentTime": ["161038.016000", "161038.020000", "161038.023000", "161038.026000", "161038.029000", "161038.032000", "161038.035000", "161038.038000", "161038.041000", "161038.044000", "161038.048000", "161038.051000", "161038.054000", "161038.057000", "161038.060000", "161038.063000", "161038.066000", "161038.069000", "161038.073000", "161038.076000", "161038.079000", "161038.082000", "161038.085000", "161038.088000", "161038.091000", "161038.094000", "161038.107000", "161137.978000", "161137.982000", "161137.985000", "161137.988000", "161137.991000", "161137.994000", "161137.997000", "161138.000000", "161138.003000", "161138.006000", "161138.009000", "161138.013000", "161138.016000", "161138.019000", "161138.022000", "161138.025000", "161138.028000", "161138.031000", "161138.034000", "161138.037000", "161138.040000", "161138.043000", "161138.047000", "161138.050000", "161138.053000", "161138.056000", "161138.059000", "161237.977000", "161237.981000", "161237.984000", "161237.987000", "161237.990000", "161237.993000", "161237.996000", "161238.000000", "161238.003000", "161238.007000", "161238.010000", "161238.013000", "161238.016000", "161238.019000", "161238.022000", "161238.025000", "161238.028000", "161238.031000", "161238.034000", "161238.038000", "161238.041000", "161238.044000", "161238.047000", "161238.050000", "161238.053000", "161238.056000", "161238.059000", "161257.977000", "161257.981000", "161257.984000", "161257.987000", "161257.990000", "161257.993000", "161257.996000", "161258.000000", "161258.003000", "161337.785000", "161337.788000", "161337.791000", "161337.795000", "161337.798000", "161337.801000", "161337.804000", "161337.807000", "161337.810000", "161337.813000", "161337.816000", "161337.819000", "161337.823000", "161337.826000", "161337.829000", "161337.832000", "161337.835000"],
      "InstanceCreationTime": ["161038.016000", "161038.020000", "161038.023000", "161038.026000", "161038.029000", "161038.032000", "161038.035000", "161038.038000", "161038.041000", "161038.044000", "161038.048000", "161038.051000", "161038.054000", "161038.057000", "161038.060000", "161038.063000", "161038.066000", "161038.069000", "161038.073000", "161038.076000", "161038.079000", "161038.082000", "161038.085000", "161038.088000", "161038.091000", "161038.094000", "161038.107000", "161137.978000", "161137.982000", "161137.985000", "161137.988000", "161137.991000", "161137.994000", "161137.997000", "161138.000000", "161138.003000", "161138.006000", "161138.009000", "161138.013000", "161138.016000", "161138.019000", "161138.022000", "161138.025000", "161138.028000", "161138.031000", "161138.034000", "161138.037000", "161138.040000", "161138.043000", "161138.047000", "161138.050000", "161138.053000", "161138.056000", "161138.059000", "161237.977000", "161237.981000", "161237.984000", "161237.987000", "161237.990000", "161237.993000", "161237.996000", "161238.000000", "161238.003000", "161238.007000", "161238.010000", "161238.013000", "161238.016000", "161238.019000", "161238.022000", "161238.025000", "161238.028000", "161238.031000", "161238.034000", "161238.038000", "161238.041000", "161238.044000", "161238.047000", "161238.050000", "161238.053000", "161238.056000", "161238.059000", "161257.977000", "161257.981000", "161257.984000", "161257.987000", "161257.990000", "161257.993000", "161257.996000", "161258.000000", "161258.003000", "161337.785000", "161337.788000", "161337.791000", "161337.795000", "161337.798000", "161337.801000", "161337.804000", "161337.807000", "161337.810000", "161337.813000", "161337.816000", "161337.819000", "161337.823000", "161337.826000", "161337.829000", "161337.832000", "161337.835000"],
      "InstanceNumber": [1, 2, 3, 4, 5, 6, 7, 8, 9, 10, 11, 12, 13, 14, 15, 16, 17, 18, 19, 20, 21, 22, 23, 24, 25, 26, 27, 28, 29, 30, 31, 32, 33, 34, 35, 36, 37, 38, 39, 40, 41, 42, 43, 44, 45, 46, 47, 48, 49, 50, 51, 52, 53, 54, 55, 56, 57, 58, 59, 60, 61, 62, 63, 64, 65, 66, 67, 68, 69, 70, 71, 72, 73, 74, 75, 76, 77, 78, 79, 80, 81, 82, 83, 84, 85, 86, 87, 88, 89, 90, 91, 92, 93, 94, 95, 96, 97, 98, 99, 100, 101, 102, 103, 104, 105, 106, 107],
      "LargestImagePixelValue": [50723, 51187, 18823, 9620, 16739, 16776, 31874, 10746, 8646, 8804, 19086, 30602, 8518, 8726, 8892, 9231, 16091, 9866, 11010, 8989, 9611, 48835, 17530, 10313, 18813, 15712, 8572, 8524, 9561, 8850, 30718, 8402, 17560, 8947, 9917, 30162, 9553, 9286, 17222, 9744, 8818, 50032, 10468, 8399, 9194, 30571, 17302, 8059, 9170, 17262, 8828, 17487, 18148, 10314, 31059, 16417, 8742, 17878, 9097, 8880, 17011, 50175, 19395, 9722, 11120, 8862, 9290, 31235, 16761, 16583, 9457, 10342, 11253, 10886, 18310, 10274, 11208, 8464, 17340, 17246, 9087, 52845, 16594, 10372, 8659, 17709, 16137, 9174, 18053, 10336, 10622, 8787, 19849, 9025, 10162, 9674, 30246, 18699, 9130, 16340, 15713, 49318, 8001, 8719, 17414, 8254, 11001],
      "SequenceName": [
 "ep_b0",
 "ep_b0",
 "ep_b1000#2",
 "ep_b2000#3",
 "ep_b1000#4",
 "ep_b1000#5",
 "ep_b300#6",
 "ep_b2000#7",
 "ep_b2000#8",
 "ep_b2000#9",
 "ep_b1000#10",
 "ep_b300#11",
 "ep_b2000#12",
 "ep_b2000#13",
 "ep_b2000#14",
 "ep_b2000#15",
 "ep_b1000#16",
 "ep_b2000#17",
 "ep_b2000#18",
 "ep_b2000#19",
 "ep_b2000#20",
 "ep_b0",
 "ep_b1000#22",
 "ep_b2000#23",
 "ep_b1000#24",
 "ep_b1000#25",
 "ep_b2000#26",
 "ep_b2000#27",
 "ep_b2000#28",
 "ep_b2000#29",
 "ep_b300#30",
 "ep_b2000#31",
 "ep_b1000#32",
 "ep_b2000#33",
 "ep_b2000#34",
 "ep_b300#35",
 "ep_b2000#36",
 "ep_b2000#37",
 "ep_b1000#38",
 "ep_b2000#39",
 "ep_b2000#40",
 "ep_b0",
 "ep_b2000#42",
 "ep_b2000#43",
 "ep_b2000#44",
 "ep_b300#45",
 "ep_b1000#46",
 "ep_b2000#47",
 "ep_b2000#48",
 "ep_b1000#49",
 "ep_b2000#50",
 "ep_b1000#51",
 "ep_b1000#52",
 "ep_b2000#53",
 "ep_b300#54",
 "ep_b1000#55",
 "ep_b2000#56",
 "ep_b1000#57",
 "ep_b2000#58",
 "ep_b2000#59",
 "ep_b1000#60",
 "ep_b0",
 "ep_b1000#62",
 "ep_b2000#63",
 "ep_b2000#64",
 "ep_b2000#65",
 "ep_b2000#66",
 "ep_b300#67",
 "ep_b1000#68",
 "ep_b1000#69",
 "ep_b2000#70",
 "ep_b2000#71",
 "ep_b2000#72",
 "ep_b2000#73",
 "ep_b1000#74",
 "ep_b2000#75",
 "ep_b2000#76",
 "ep_b2000#77",
 "ep_b1000#78",
 "ep_b1000#79",
 "ep_b2000#80",
 "ep_b0",
 "ep_b1000#82",
 "ep_b2000#83",
 "ep_b2000#84",
 "ep_b1000#85",
 "ep_b1000#86",
 "ep_b2000#87",
 "ep_b1000#88",
 "ep_b2000#89",
 "ep_b2000#90",
 "ep_b2000#91",
 "ep_b1000#92",
 "ep_b2000#93",
 "ep_b2000#94",
 "ep_b2000#95",
 "ep_b300#96",
 "ep_b1000#97",
 "ep_b2000#98",
 "ep_b1000#99",
 "ep_b1000#100",
 "ep_b0",
 "ep_b2000#102",
 "ep_b2000#103",
 "ep_b1000#104",
 "ep_b2000#105",
 "ep_b2000#106"
],
      "TriggerTime": [12835.0, 15080.0, 17322.5, 19565.0, 21807.5, 24050.0, 26295.0, 28537.5, 30780.0, 33022.5, 35265.0, 37510.0, 39752.5, 41995.0, 44237.5, 46480.0, 48725.0, 50967.5, 53210.0, 55452.5, 57695.0, 59940.0, 62182.5, 64425.0, 66667.5, 68910.0, 71155.0, 73397.5, 75640.0, 77882.5, 80125.0, 82370.0, 84612.5, 86855.0, 89097.5, 91340.0, 93585.0, 95827.5, 98070.0, 100312.5, 102555.0, 104800.0, 107042.5, 109285.0, 111527.5, 113770.0, 116015.0, 118257.5, 120500.0, 122742.5, 124985.0, 127230.0, 129472.5, 131715.0, 133957.5, 136200.0, 138445.0, 140687.5, 142930.0, 145172.5, 147415.0, 149660.0, 151902.5, 154145.0, 156387.5, 158630.0, 160875.0, 163117.5, 165360.0, 167602.5, 169845.0, 172090.0, 174332.5, 176575.0, 178817.5, 181060.0, 183305.0, 185547.5, 187790.0, 190032.5, 192275.0, 194520.0, 196762.5, 199005.0, 201247.5, 203490.0, 205735.0, 207977.5, 210220.0, 212462.5, 214705.0, 216950.0, 219192.5, 221435.0, 223677.5, 225920.0, 228165.0, 230407.5, 232650.0, 234892.5, 237135.0, 239380.0, 241622.5, 243865.0, 246107.5, 248350.0, 250595.0],
      "WindowCenter": [7229.0, 7229.0, 3508.0, 2219.0, 3451.0, 3391.0, 5342.0, 2232.0, 2227.0, 2197.0, 3478.0, 5263.0, 2158.0, 2183.0, 2232.0, 2248.0, 3408.0, 2200.0, 2258.0, 2217.0, 2191.0, 7126.0, 3449.0, 2249.0, 3507.0, 3408.0, 2214.0, 2181.0, 2174.0, 2174.0, 5293.0, 2196.0, 3424.0, 2231.0, 2195.0, 5308.0, 2236.0, 2192.0, 3453.0, 2232.0, 2218.0, 7143.0, 2264.0, 2199.0, 2187.0, 5288.0, 3434.0, 2170.0, 2199.0, 3430.0, 2215.0, 3412.0, 3439.0, 2273.0, 5294.0, 3373.0, 2187.0, 3442.0, 2203.0, 2254.0, 3441.0, 7103.0, 3492.0, 2154.0, 2296.0, 2199.0, 2198.0, 5305.0, 3423.0, 3435.0, 2235.0, 2261.0, 2265.0, 2244.0, 3427.0, 2270.0, 2252.0, 2190.0, 3436.0, 3421.0, 2205.0, 7167.0, 3378.0, 2251.0, 2200.0, 3446.0, 3467.0, 2147.0, 3446.0, 2230.0, 2251.0, 2158.0, 3462.0, 2215.0, 2267.0, 2230.0, 5264.0, 3495.0, 2202.0, 3447.0, 3416.0, 7141.0, 2184.0, 2173.0, 3412.0, 2185.0, 2276.0],
      "WindowWidth": [15584.0, 15584.0, 8050.0, 5436.0, 7934.0, 7813.0, 11661.0, 5454.0, 5445.0, 5383.0, 7999.0, 11504.0, 5304.0, 5356.0, 5463.0, 5500.0, 7853.0, 5390.0, 5521.0, 5430.0, 5374.0, 15362.0, 7927.0, 5501.0, 8048.0, 7849.0, 5416.0, 5344.0, 5340.0, 5338.0, 11568.0, 5381.0, 7908.0, 5457.0, 5372.0, 11599.0, 5482.0, 5380.0, 7939.0, 5464.0, 5416.0, 15384.0, 5534.0, 5389.0, 5368.0, 11564.0, 7934.0, 5332.0, 5382.0, 7912.0, 5425.0, 7865.0, 7911.0, 5547.0, 11574.0, 7789.0, 5362.0, 7939.0, 5408.0, 5498.0, 7902.0, 15306.0, 8002.0, 5291.0, 5589.0, 5394.0, 5393.0, 11593.0, 7877.0, 7904.0, 5454.0, 5524.0, 5540.0, 5491.0, 7904.0, 5533.0, 5514.0, 5377.0, 7905.0, 7863.0, 5406.0, 15432.0, 7804.0, 5508.0, 5397.0, 7930.0, 7970.0, 5280.0, 7923.0, 5460.0, 5520.0, 5304.0, 7978.0, 5435.0, 5522.0, 5455.0, 11511.0, 8030.0, 5393.0, 7926.0, 7873.0, 15393.0, 5356.0, 5345.0, 7856.0, 5359.0, 5559.0]
    },
    "slices": {}
  }
}