{
  "AcquisitionMatrixPE": 110,
  "AcquisitionNumber": 1,
  "AcquisitionTime": "11:06:41.375000",
  "BandwidthPerPixelPhaseEncode": 12.987,
  "BaseResolution": 110,
  "BodyPartExamined": "BRAIN",
  "CoilCombinationMethod": "Sum of Squares",
  "ConsistencyInfo": "N4_VE11C_LATEST_20160120",
  "ConversionSoftware": "dcm2niix",
  "ConversionSoftwareVersion": "v1.0.20211006",
  "DerivedVendorReportedEchoSpacing": 0.000700001,
  "DeviceSerialNumber": "167006",
  "DiffusionScheme": "Monopolar",
  "DwellTime": 2.7e-06,
  "EchoTime": 0.0768,
  "EchoTrainLength": 83,
  "EffectiveEchoSpacing": 0.000700001,
  "FlipAngle": 78,
  "HeudiconvVersion": "0.5.3.post569+g418601f",
  "ImageComments": "Unaliased MB3/PE3/LB SENSE1",
  "ImageOrientationPatientDICOM": [0.997564, 0.0655496, -0.0238581, -0.0697564, 0.937404, -0.341187],
  "ImageOrientationText": "Tra>Cor(-20.0)",
  "ImageType": [
    "ORIGINAL",
    "PRIMARY",
    "DIFFUSION",
    "NONE",
    "MB",
    "ND",
    "MOSAIC"
],
  "ImagingFrequency": 123.259,
  "InPlanePhaseEncodingDirectionDICOM": "COL",
  "InstitutionAddress": "Chemin Queen-Mary 4565,Montreal,District,CA,H3W 1W5",
  "InstitutionName": "IUGM",
  "InstitutionalDepartmentName": "Department",
  "MRAcquisitionType": "2D",
  "MagneticFieldStrength": 3,
  "Manufacturer": "Siemens",
  "ManufacturersModelName": "Prisma_fit",
  "MatrixCoilMode": "SENSE",
  "Modality": "MR",
  "MultibandAccelerationFactor": 3,
  "PartialFourier": 0.75,
  "PatientPosition": "HFS",
  "PercentPhaseFOV": 100,
  "PercentSampling": 100,
  "PhaseEncodingDirection": "j",
  "PhaseEncodingSteps": 83,
  "PhaseResolution": 1,
  "PixelBandwidth": 1685,
  "ProcedureStepDescription": "anat^generic",
  "ProtocolName": "dMRI_dir106_PA_test_cmrr",
  "PulseSequenceDetails": "%CustomerSeq%\\cmrr_mbep2d_diff",
  "ReceiveCoilActiveElements": "HC1-6",
  "ReceiveCoilName": "HeadNeck_64",
  "ReconMatrixPE": 110,
  "RepetitionTime": 2.243,
  "SAR": 0.134221,
  "ScanOptions": "PFP\\EXT",
  "ScanningSequence": "EP",
  "SequenceName": "ep_b5#1",
  "SequenceVariant": "SK\\SS",
  "SeriesDescription": "dMRI_dir106_PA_test_cmrr",
  "SeriesNumber": 11,
  "ShimSetting": [628, -7213, -8858, 661, 65, -17, -3, -3],
  "SliceThickness": 2,
  "SliceTiming": [0, 1.17, 0.115, 1.285, 0.2325, 1.4025, 0.35, 1.52, 0.4675, 1.6375, 0.585, 1.755, 0.7, 1.87, 0.8175, 1.9875, 0.935, 2.105, 1.0525, 0, 1.17, 0.115, 1.285, 0.2325, 1.4025, 0.35, 1.52, 0.4675, 1.6375, 0.585, 1.755, 0.7, 1.87, 0.8175, 1.9875, 0.935, 2.105, 1.0525, 0, 1.17, 0.115, 1.285, 0.2325, 1.4025, 0.35, 1.52, 0.4675, 1.6375, 0.585, 1.755, 0.7, 1.87, 0.8175, 1.9875, 0.935, 2.105, 1.0525],
  "SoftwareVersions": "syngo MR E11",
  "SpacingBetweenSlices": 2,
  "StationName": "MRC35049",
  "TotalReadoutTime": 0.0763001,
  "TxRefAmp": 243.451,
  "WipMemBlock": "c98c3cad-ea40-46ed-b9f4-2c52b6cf7434||Sequence: R016 ve11c/master r/e634e98; Dec 19 2017 11:11:25 by eja",
  "dcmmeta_affine": [
    [-1.9951281547546387, -0.13951288163661957, 1.685954309493809e-08, 117.82410430908203],
    [-0.13109922409057617, 1.8748071193695068, -0.6840402483940125, -64.94075775146484],
    [-0.04771619662642479, 0.6823740005493164, 1.879385232925415, -68.45509338378906],
    [0.0, 0.0, 0.0, 1.0]
],
  "dcmmeta_reorient_transform": [
    [0.0, -1.0, 0.0, 109.0],
    [1.0, 0.0, 0.0, 0.0],
    [0.0, 0.0, 1.0, 0.0],
    [0.0, 0.0, 0.0, 1.0]
],
  "dcmmeta_shape": [110, 110, 57, 107],
  "dcmmeta_slice_dim": 2,
  "dcmmeta_version": 0.6,
  "global": {
    "const": {
      "AcquisitionMatrix": [110, 0, 0, 110],
      "AngioFlag": "N",
      "BitsAllocated": 16,
      "BitsStored": 16,
      "BodyPartExamined": "BRAIN",
      "CardiacNumberOfImages": 1,
      "Columns": 880,
      "EchoNumbers": 1,
      "EchoTime": 76.8,
      "EchoTrainLength": 83,
      "FlipAngle": 78.0,
      "HighBit": 15,
      "ImageOrientationPatient": [0.9975640525966, 0.06554961537792, -0.0238580990621, -0.0697564403267, 0.93740358271093, -0.3411869900123],
      "ImagePositionPatient": [-817.02906020864, -911.68718559504, 287.00838947555],
      "ImageType": [
        "ORIGINAL",
        "PRIMARY",
        "DIFFUSION",
        "NONE",
        "MB",
        "ND",
        "MOSAIC"
],
      "ImagedNucleus": "1H",
      "ImagingFrequency": 123.258865,
      "InPlanePhaseEncodingDirection": "COL",
      "MRAcquisitionType": "2D",
      "MagneticFieldStrength": 3.0,
      "Manufacturer": "SIEMENS",
      "ManufacturerModelName": "Prisma_fit",
      "Modality": "MR",
      "NominalInterval": 0,
      "NumberOfAverages": 1.0,
      "NumberOfPhaseEncodingSteps": 83,
      "PercentPhaseFieldOfView": 100.0,
      "PercentSampling": 100.0,
      "PerformedProcedureStepStartTime": "103436.163000",
      "PhotometricInterpretation": "MONOCHROME2",
      "PixelBandwidth": 1685.0,
      "PixelRepresentation": 0,
      "PixelSpacing": [2.0, 2.0],
      "ProtocolName": "dMRI_dir106_PA_test_cmrr",
      "RepetitionTime": 2243.0,
      "Rows": 880,
      "SAR": 0.13422125090279,
      "SamplesPerPixel": 1,
      "ScanOptions": [
        "PFP",
        "EXT"
],
      "ScanningSequence": "EP",
      "SequenceVariant": [
        "SK",
        "SS"
],
      "SeriesDescription": "dMRI_dir106_PA_test_cmrr",
      "SeriesNumber": 11,
      "SeriesTime": "110731.498000",
      "SliceLocation": -42.11569831735,
      "SliceThickness": 2.0,
      "SmallestImagePixelValue": 0,
      "SoftwareVersions": "syngo MR E11",
      "SpacingBetweenSlices": 1.9999999613459,
      "SpecificCharacterSet": "ISO_IR 100",
      "StudyID": "1",
      "StudyTime": "103436.077000",
      "TransmitCoilName": "Body",
      "VariableFlipAngleFlag": "N",
      "WindowCenterWidthExplanation": "Algo1",
      "dBdt": 0.0},
    "slices": {}
  },
  "time": {
    "samples": {
      "AcquisitionNumber": [1, 2, 3, 4, 5, 6, 7, 8, 9, 10, 11, 12, 13, 14, 15, 16, 17, 18, 19, 20, 21, 22, 23, 24, 25, 26, 27, 28, 29, 30, 31, 32, 33, 34, 35, 36, 37, 38, 39, 40, 41, 42, 43, 44, 45, 46, 47, 48, 49, 50, 51, 52, 53, 54, 55, 56, 57, 58, 59, 60, 61, 62, 63, 64, 65, 66, 67, 68, 69, 70, 71, 72, 73, 74, 75, 76, 77, 78, 79, 80, 81, 82, 83, 84, 85, 86, 87, 88, 89, 90, 91, 92, 93, 94, 95, 96, 97, 98, 99, 100, 101, 102, 103, 104, 105, 106, 107],
      "AcquisitionTime": ["110641.375000", "110643.617500", "110645.860000", "110648.102500", "110650.345000", "110652.590000", "110654.832500", "110657.075000", "110659.317500", "110701.560000", "110703.805000", "110706.047500", "110708.290000", "110710.532500", "110712.775000", "110715.020000", "110717.262500", "110719.505000", "110721.747500", "110723.990000", "110726.235000", "110728.477500", "110730.720000", "110732.962500", "110735.205000", "110737.450000", "110739.692500", "110741.935000", "110744.177500", "110746.420000", "110748.665000", "110750.907500", "110753.150000", "110755.392500", "110757.635000", "110759.880000", "110802.122500", "110804.365000", "110806.607500", "110808.850000", "110811.095000", "110813.337500", "110815.580000", "110817.822500", "110820.065000", "110822.310000", "110824.552500", "110826.795000", "110829.037500", "110831.280000", "110833.525000", "110835.767500", "110838.010000", "110840.252500", "110842.495000", "110844.740000", "110846.982500", "110849.225000", "110851.467500", "110853.710000", "110855.955000", "110858.197500", "110900.440000", "110902.682500", "110904.925000", "110907.170000", "110909.412500", "110911.655000", "110913.897500", "110916.140000", "110918.385000", "110920.627500", "110922.870000", "110925.112500", "110927.355000", "110929.600000", "110931.842500", "110934.085000", "110936.327500", "110938.570000", "110940.815000", "110943.057500", "110945.300000", "110947.542500", "110949.785000", "110952.030000", "110954.272500", "110956.515000", "110958.757500", "111001.000000", "111003.245000", "111005.487500", "111007.730000", "111009.972500", "111012.215000", "111014.460000", "111016.702500", "111018.945000", "111021.187500", "111023.430000", "111025.675000", "111027.917500", "111030.160000", "111032.402500", "111034.645000", "111036.890000", "111039.132500"],
      "ContentTime": ["110731.501000", "110731.505000", "110731.508000", "110731.511000", "110731.514000", "110731.527000", "110731.530000", "110731.533000", "110731.536000", "110731.539000", "110731.548000", "110731.551000", "110731.554000", "110731.557000", "110731.567000", "110731.570000", "110731.573000", "110731.576000", "110731.579000", "110731.582000", "110731.585000", "110731.588000", "110831.477000", "110831.480000", "110831.484000", "110831.487000", "110831.490000", "110831.493000", "110831.496000", "110831.499000", "110831.507000", "110831.511000", "110831.515000", "110831.520000", "110831.523000", "110831.526000", "110831.530000", "110831.533000", "110831.536000", "110831.540000", "110831.543000", "110831.546000", "110831.549000", "110831.552000", "110831.555000", "110831.558000", "110831.561000", "110831.564000", "110931.476000", "110931.490000", "110931.493000", "110931.496000", "110931.499000", "110931.502000", "110931.506000", "110931.509000", "110931.512000", "110931.515000", "110931.518000", "110931.521000", "110931.524000", "110931.527000", "110931.530000", "110931.533000", "110931.536000", "110931.539000", "110931.542000", "110931.546000", "110931.549000", "110931.552000", "110931.555000", "110931.558000", "110931.561000", "110931.564000", "110931.567000", "111031.476000", "111031.479000", "111031.482000", "111031.486000", "111031.489000", "111031.504000", "111031.507000", "111031.510000", "111031.513000", "111031.516000", "111031.519000", "111031.522000", "111031.525000", "111031.528000", "111031.532000", "111031.535000", "111031.538000", "111031.541000", "111031.544000", "111031.547000", "111031.550000", "111031.553000", "111031.556000", "111031.559000", "111031.562000", "111031.565000", "111031.569000", "111043.572000", "111043.575000", "111043.578000", "111043.582000", "111043.585000"],
      "InstanceCreationTime": ["110731.501000", "110731.505000", "110731.508000", "110731.511000", "110731.514000", "110731.527000", "110731.530000", "110731.533000", "110731.536000", "110731.539000", "110731.548000", "110731.551000", "110731.554000", "110731.557000", "110731.567000", "110731.570000", "110731.573000", "110731.576000", "110731.579000", "110731.582000", "110731.585000", "110731.588000", "110831.477000", "110831.480000", "110831.484000", "110831.487000", "110831.490000", "110831.493000", "110831.496000", "110831.499000", "110831.507000", "110831.511000", "110831.515000", "110831.520000", "110831.523000", "110831.526000", "110831.530000", "110831.533000", "110831.536000", "110831.540000", "110831.543000", "110831.546000", "110831.549000", "110831.552000", "110831.555000", "110831.558000", "110831.561000", "110831.564000", "110931.476000", "110931.490000", "110931.493000", "110931.496000", "110931.499000", "110931.502000", "110931.506000", "110931.509000", "110931.512000", "110931.515000", "110931.518000", "110931.521000", "110931.524000", "110931.527000", "110931.530000", "110931.533000", "110931.536000", "110931.539000", "110931.542000", "110931.546000", "110931.549000", "110931.552000", "110931.555000", "110931.558000", "110931.561000", "110931.564000", "110931.567000", "111031.476000", "111031.479000", "111031.482000", "111031.486000", "111031.489000", "111031.504000", "111031.507000", "111031.510000", "111031.513000", "111031.516000", "111031.519000", "111031.522000", "111031.525000", "111031.528000", "111031.532000", "111031.535000", "111031.538000", "111031.541000", "111031.544000", "111031.547000", "111031.550000", "111031.553000", "111031.556000", "111031.559000", "111031.562000", "111031.565000", "111031.569000", "111043.572000", "111043.575000", "111043.578000", "111043.582000", "111043.585000"],
      "InstanceNumber": [1, 2, 3, 4, 5, 6, 7, 8, 9, 10, 11, 12, 13, 14, 15, 16, 17, 18, 19, 20, 21, 22, 23, 24, 25, 26, 27, 28, 29, 30, 31, 32, 33, 34, 35, 36, 37, 38, 39, 40, 41, 42, 43, 44, 45, 46, 47, 48, 49, 50, 51, 52, 53, 54, 55, 56, 57, 58, 59, 60, 61, 62, 63, 64, 65, 66, 67, 68, 69, 70, 71, 72, 73, 74, 75, 76, 77, 78, 79, 80, 81, 82, 83, 84, 85, 86, 87, 88, 89, 90, 91, 92, 93, 94, 95, 96, 97, 98, 99, 100, 101, 102, 103, 104, 105, 106, 107],
      "LargestImagePixelValue": [38944, 38618, 15808, 8629, 15768, 15113, 27794, 9473, 8300, 8700, 16624, 26277, 8759, 8352, 9511, 8575, 15558, 7880, 8558, 10530, 8807, 38366, 16811, 9276, 16304, 15235, 9413, 8174, 8808, 7905, 27176, 8002, 16042, 8545, 8499, 27274, 9741, 8620, 15939, 8436, 8510, 38119, 9806, 7726, 9282, 26751, 15517, 9061, 8154, 15471, 9420, 17418, 15758, 9309, 27206, 15702, 7952, 14799, 10077, 8462, 15520, 38281, 15001, 8478, 8119, 8678, 9887, 29007, 15248, 16944, 8204, 9314, 9019, 8503, 15043, 8220, 8807, 9143, 15259, 16337, 9019, 38156, 15815, 9733, 9090, 15878, 16933, 8639, 16706, 9850, 8697, 8055, 15593, 9913, 8125, 9995, 28480, 15612, 7606, 17632, 15737, 38057, 8870, 8928, 15518, 7536, 9026],
      "SequenceName": [
 "ep_b5#1",
 "ep_b5#1",
 "ep_b1000#2",
 "ep_b2005#3",
 "ep_b1000#4",
 "ep_b995#5",
 "ep_b300#6",
 "ep_b1995#7",
 "ep_b2000#8",
 "ep_b2000#9",
 "ep_b995#10",
 "ep_b300#11",
 "ep_b1990#12",
 "ep_b2005#13",
 "ep_b2005#14",
 "ep_b2000#15",
 "ep_b1000#16",
 "ep_b2000#17",
 "ep_b2005#18",
 "ep_b1995#19",
 "ep_b1990#20",
 "ep_b5#21",
 "ep_b995#22",
 "ep_b1990#23",
 "ep_b995#24",
 "ep_b1000#25",
 "ep_b2000#26",
 "ep_b1995#27",
 "ep_b1990#28",
 "ep_b1995#29",
 "ep_b300#30",
 "ep_b2005#31",
 "ep_b1005#32",
 "ep_b2000#33",
 "ep_b2000#34",
 "ep_b300#35",
 "ep_b2005#36",
 "ep_b1995#37",
 "ep_b1005#38",
 "ep_b2000#39",
 "ep_b2005#40",
 "ep_b5#41",
 "ep_b1995#42",
 "ep_b2005#43",
 "ep_b1995#44",
 "ep_b305#45",
 "ep_b1005#46",
 "ep_b2005#47",
 "ep_b2000#48",
 "ep_b1005#49",
 "ep_b2000#50",
 "ep_b995#51",
 "ep_b1000#52",
 "ep_b1995#53",
 "ep_b300#54",
 "ep_b1000#55",
 "ep_b2000#56",
 "ep_b1005#57",
 "ep_b2010#58",
 "ep_b2000#59",
 "ep_b1000#60",
 "ep_b5#61",
 "ep_b1000#62",
 "ep_b1995#63",
 "ep_b2000#64",
 "ep_b2005#65",
 "ep_b2010#66",
 "ep_b300#67",
 "ep_b1005#68",
 "ep_b1000#69",
 "ep_b2000#70",
 "ep_b1995#71",
 "ep_b2005#72",
 "ep_b2005#73",
 "ep_b1005#74",
 "ep_b2000#75",
 "ep_b2005#76",
 "ep_b2000#77",
 "ep_b1005#78",
 "ep_b1000#79",
 "ep_b1995#80",
 "ep_b5#81",
 "ep_b995#82",
 "ep_b2010#83",
 "ep_b2000#84",
 "ep_b995#85",
 "ep_b1000#86",
 "ep_b1995#87",
 "ep_b1005#88",
 "ep_b2005#89",
 "ep_b2005#90",
 "ep_b1995#91",
 "ep_b1005#92",
 "ep_b2005#93",
 "ep_b2000#94",
 "ep_b1995#95",
 "ep_b300#96",
 "ep_b995#97",
 "ep_b2000#98",
 "ep_b1000#99",
 "ep_b995#100",
 "ep_b5#101",
 "ep_b2005#102",
 "ep_b2005#103",
 "ep_b1000#104",
 "ep_b2005#105",
 "ep_b1995#106"
],
      "TriggerTime": [12835.0, 15080.0, 17322.5, 19565.0, 21807.5, 24050.0, 26295.0, 28537.5, 30780.0, 33022.5, 35265.0, 37510.0, 39752.5, 41995.0, 44237.5, 46480.0, 48725.0, 50967.5, 53210.0, 55452.5, 57695.0, 59940.0, 62182.5, 64425.0, 66667.5, 68910.0, 71155.0, 73397.5, 75640.0, 77882.5, 80125.0, 82370.0, 84612.5, 86855.0, 89097.5, 91340.0, 93585.0, 95827.5, 98070.0, 100312.5, 102555.0, 104800.0, 107042.5, 109285.0, 111527.5, 113770.0, 116015.0, 118257.5, 120500.0, 122742.5, 124985.0, 127230.0, 129472.5, 131715.0, 133957.5, 136200.0, 138445.0, 140687.5, 142930.0, 145172.5, 147415.0, 149660.0, 151902.5, 154145.0, 156387.5, 158630.0, 160875.0, 163117.5, 165360.0, 167602.5, 169845.0, 172090.0, 174332.5, 176575.0, 178817.5, 181060.0, 183305.0, 185547.5, 187790.0, 190032.5, 192275.0, 194520.0, 196762.5, 199005.0, 201247.5, 203490.0, 205735.0, 207977.5, 210220.0, 212462.5, 214705.0, 216950.0, 219192.5, 221435.0, 223677.5, 225920.0, 228165.0, 230407.5, 232650.0, 234892.5, 237135.0, 239380.0, 241622.5, 243865.0, 246107.5, 248350.0, 250595.0],
      "WindowCenter": [4937.0, 4924.0, 2429.0, 1585.0, 2429.0, 2391.0, 3668.0, 1600.0, 1578.0, 1592.0, 2411.0, 3646.0, 1557.0, 1536.0, 1610.0, 1598.0, 2415.0, 1566.0, 1586.0, 1594.0, 1570.0, 4840.0, 2418.0, 1606.0, 2429.0, 2415.0, 1580.0, 1577.0, 1558.0, 1552.0, 3654.0, 1549.0, 2398.0, 1585.0, 1578.0, 3660.0, 1590.0, 1571.0, 2385.0, 1598.0, 1563.0, 4887.0, 1619.0, 1548.0, 1588.0, 3631.0, 2399.0, 1550.0, 1593.0, 2368.0, 1595.0, 2410.0, 2413.0, 1600.0, 3631.0, 2399.0, 1554.0, 2393.0, 1575.0, 1592.0, 2409.0, 4886.0, 2429.0, 1553.0, 1597.0, 1569.0, 1589.0, 3707.0, 2384.0, 2426.0, 1590.0, 1615.0, 1604.0, 1587.0, 2356.0, 1594.0, 1603.0, 1593.0, 2377.0, 2426.0, 1596.0, 4865.0, 2392.0, 1590.0, 1578.0, 2433.0, 2437.0, 1553.0, 2387.0, 1602.0, 1590.0, 1551.0, 2384.0, 1581.0, 1606.0, 1611.0, 3689.0, 2431.0, 1570.0, 2440.0, 2415.0, 4854.0, 1562.0, 1557.0, 2426.0, 1537.0, 1607.0],
      "WindowWidth": [11078.0, 11055.0, 5929.0, 4082.0, 5927.0, 5867.0, 8510.0, 4115.0, 4051.0, 4087.0, 5920.0, 8475.0, 4028.0, 3968.0, 4133.0, 4105.0, 5899.0, 4033.0, 4088.0, 4092.0, 4053.0, 10890.0, 5914.0, 4141.0, 5931.0, 5899.0, 4059.0, 4053.0, 4031.0, 4006.0, 8485.0, 3990.0, 5907.0, 4079.0, 4056.0, 8501.0, 4112.0, 4053.0, 5838.0, 4111.0, 4023.0, 10988.0, 4171.0, 3990.0, 4096.0, 8448.0, 5901.0, 3999.0, 4087.0, 5831.0, 4096.0, 5917.0, 5895.0, 4115.0, 8451.0, 5866.0, 4008.0, 5874.0, 4074.0, 4082.0, 5879.0, 10981.0, 5929.0, 4011.0, 4097.0, 4048.0, 4105.0, 8593.0, 5834.0, 5921.0, 4074.0, 4152.0, 4138.0, 4089.0, 5818.0, 4089.0, 4131.0, 4086.0, 5836.0, 5911.0, 4100.0, 10941.0, 5870.0, 4111.0, 4055.0, 5946.0, 5931.0, 4013.0, 5850.0, 4129.0, 4106.0, 4001.0, 5869.0, 4070.0, 4108.0, 4135.0, 8549.0, 5937.0, 4046.0, 5949.0, 5898.0, 10921.0, 4018.0, 4030.0, 5921.0, 3973.0, 4149.0]
    },
    "slices": {}
  }
}