{
  "AcquisitionMatrixPE": 110,
  "AcquisitionNumber": 1,
  "AcquisitionTime": "15:38:7.117500",
  "BandwidthPerPixelPhaseEncode": 12.987,
  "BaseResolution": 110,
  "BodyPartExamined": "BRAIN",
  "CoilCombinationMethod": "Sum of Squares",
  "ConsistencyInfo": "N4_VE11C_LATEST_20160120",
  "ConversionSoftware": "dcm2niix",
  "ConversionSoftwareVersion": "v1.0.20211006",
  "DerivedVendorReportedEchoSpacing": 0.000700001,
  "DeviceSerialNumber": "167006",
  "DiffusionScheme": "Monopolar",
  "DwellTime": 2.7e-06,
  "EchoTime": 0.0816,
  "EchoTrainLength": 83,
  "EffectiveEchoSpacing": 0.000700001,
  "FlipAngle": 78,
  "HeudiconvVersion": "0.5.3.post569+g418601f",
  "ImageComments": "Unaliased MB3/PE3/LB SENSE1",
  "ImageOrientationPatientDICOM": [1, 0, 0, 0, 0.939693, -0.34202],
  "ImageOrientationText": "Tra>Cor(-20.0)",
  "ImageType": [
    "ORIGINAL",
    "PRIMARY",
    "DIFFUSION",
    "NONE",
    "MB",
    "ND",
    "MOSAIC"
],
  "ImagingFrequency": 123.259,
  "InPlanePhaseEncodingDirectionDICOM": "COL",
  "InstitutionAddress": "Chemin Queen-Mary 4565,Montreal,District,CA,H3W 1W5",
  "InstitutionName": "IUGM",
  "InstitutionalDepartmentName": "Department",
  "MRAcquisitionType": "2D",
  "MagneticFieldStrength": 3,
  "Manufacturer": "Siemens",
  "ManufacturersModelName": "Prisma_fit",
  "MatrixCoilMode": "SENSE",
  "Modality": "MR",
  "MultibandAccelerationFactor": 3,
  "PartialFourier": 0.75,
  "PatientPosition": "HFS",
  "PercentPhaseFOV": 100,
  "PercentSampling": 100,
  "PhaseEncodingDirection": "j-",
  "PhaseEncodingSteps": 83,
  "PhaseResolution": 1,
  "PixelBandwidth": 1685,
  "ProcedureStepDescription": "anat^generic",
  "ProtocolName": "dMRI_dir98_AP_test_cmrr",
  "PulseSequenceDetails": "%CustomerSeq%\\cmrr_mbep2d_diff",
  "ReceiveCoilActiveElements": "HC1-6",
  "ReceiveCoilName": "HeadNeck_64",
  "ReconMatrixPE": 110,
  "RepetitionTime": 2.334,
  "SAR": 0.103183,
  "ScanOptions": "PFP\\EXT",
  "ScanningSequence": "EP",
  "SequenceName": "ep_b5#1",
  "SequenceVariant": "SK\\SS",
  "SeriesDescription": "dMRI_dir98_AP_test_cmrr",
  "SeriesNumber": 7,
  "ShimSetting": [629, -7258, -8841, 675, 12, -244, 0, -40],
  "SliceThickness": 2,
  "SliceTiming": [0, 1.2175, 0.1225, 1.34, 0.245, 1.4625, 0.365, 1.585, 0.4875, 1.705, 0.61, 1.8275, 0.7325, 1.95, 0.8525, 2.07, 0.975, 2.1925, 1.0975, 0, 1.2175, 0.1225, 1.34, 0.245, 1.4625, 0.365, 1.585, 0.4875, 1.705, 0.61, 1.8275, 0.7325, 1.95, 0.8525, 2.07, 0.975, 2.1925, 1.0975, 0, 1.2175, 0.1225, 1.34, 0.245, 1.4625, 0.365, 1.585, 0.4875, 1.705, 0.61, 1.8275, 0.7325, 1.95, 0.8525, 2.07, 0.975, 2.1925, 1.0975],
  "SoftwareVersions": "syngo MR E11",
  "SpacingBetweenSlices": 2,
  "StationName": "MRC35049",
  "TotalReadoutTime": 0.0763001,
  "TxRefAmp": 214.528,
  "WipMemBlock": "e6c39dda-26f0-40cb-8c0b-6bd29da287f0||Sequence: R016 ve11c/master r/e634e98; Dec 19 2017 11:11:25 by eja",
  "dcmmeta_affine": [
    [-2.0, 0.0, 0.0, 109.49686431884766],
    [0.0, 1.879385232925415, -0.6840403079986572, -71.76080322265625],
    [0.0, 0.6840403079986572, 1.879385232925415, -72.51885986328125],
    [0.0, 0.0, 0.0, 1.0]
],
  "dcmmeta_reorient_transform": [
    [0.0, -1.0, 0.0, 109.0],
    [1.0, 0.0, 0.0, 0.0],
    [0.0, 0.0, 1.0, 0.0],
    [0.0, 0.0, 0.0, 1.0]
],
  "dcmmeta_shape": [110, 110, 57, 99],
  "dcmmeta_slice_dim": 2,
  "dcmmeta_version": 0.6,
  "global": {
    "const": {
      "AcquisitionMatrix": [110, 0, 0, 110],
      "AngioFlag": "N",
      "BitsAllocated": 16,
      "BitsStored": 16,
      "BodyPartExamined": "BRAIN",
      "CardiacNumberOfImages": 1,
      "Columns": 880,
      "EchoNumbers": 1,
      "EchoTime": 81.6,
      "EchoTrainLength": 83,
      "FlipAngle": 78.0,
      "HighBit": 15,
      "ImageOrientationPatient": [1.0, 0.0, 0.0, 0.0, 0.93969261856831, -0.3420201494185],
      "ImagePositionPatient": [-879.49686384201, -856.65550226492, 265.39704682639],
      "ImageType": [
        "ORIGINAL",
        "PRIMARY",
        "DIFFUSION",
        "NONE",
        "MB",
        "ND",
        "MOSAIC"
],
      "ImagedNucleus": "1H",
      "ImagingFrequency": 123.258979,
      "InPlanePhaseEncodingDirection": "COL",
      "MRAcquisitionType": "2D",
      "MagneticFieldStrength": 3.0,
      "Manufacturer": "SIEMENS",
      "ManufacturerModelName": "Prisma_fit",
      "Modality": "MR",
      "NominalInterval": 0,
      "NumberOfAverages": 1.0,
      "NumberOfPhaseEncodingSteps": 83,
      "PercentPhaseFieldOfView": 100.0,
      "PercentSampling": 100.0,
      "PerformedProcedureStepStartTime": "145508.201000",
      "PhotometricInterpretation": "MONOCHROME2",
      "PixelBandwidth": 1685.0,
      "PixelRepresentation": 0,
      "PixelSpacing": [2.0, 2.0],
      "ProtocolName": "dMRI_dir98_AP_test_cmrr",
      "RepetitionTime": 2334.0,
      "Rows": 880,
      "SAR": 0.10318282302041,
      "SamplesPerPixel": 1,
      "ScanOptions": [
        "PFP",
        "EXT"
],
      "ScanningSequence": "EP",
      "SequenceVariant": [
        "SK",
        "SS"
],
      "SeriesDescription": "dMRI_dir98_AP_test_cmrr",
      "SeriesNumber": 7,
      "SeriesTime": "153857.274000",
      "SliceLocation": -43.601796992216,
      "SliceThickness": 2.0,
      "SmallestImagePixelValue": 0,
      "SoftwareVersions": "syngo MR E11",
      "SpacingBetweenSlices": 1.9999999555214,
      "SpecificCharacterSet": "ISO_IR 100",
      "StudyID": "1",
      "StudyTime": "145508.122000",
      "TransmitCoilName": "Body",
      "VariableFlipAngleFlag": "N",
      "WindowCenterWidthExplanation": "Algo1",
      "dBdt": 0.0},
    "slices": {}
  },
  "time": {
    "samples": {
      "AcquisitionNumber": [1, 2, 3, 4, 5, 6, 7, 8, 9, 10, 11, 12, 13, 14, 15, 16, 17, 18, 19, 20, 21, 22, 23, 24, 25, 26, 27, 28, 29, 30, 31, 32, 33, 34, 35, 36, 37, 38, 39, 40, 41, 42, 43, 44, 45, 46, 47, 48, 49, 50, 51, 52, 53, 54, 55, 56, 57, 58, 59, 60, 61, 62, 63, 64, 65, 66, 67, 68, 69, 70, 71, 72, 73, 74, 75, 76, 77, 78, 79, 80, 81, 82, 83, 84, 85, 86, 87, 88, 89, 90, 91, 92, 93, 94, 95, 96, 97, 98, 99],
      "AcquisitionTime": ["153807.117500", "153809.452500", "153811.787500", "153814.120000", "153816.455000", "153818.787500", "153821.122500", "153823.457500", "153825.790000", "153828.125000", "153830.457500", "153832.792500", "153835.127500", "153837.460000", "153839.795000", "153842.127500", "153844.462500", "153846.797500", "153849.130000", "153851.465000", "153853.797500", "153856.132500", "153858.467500", "153900.800000", "153903.135000", "153905.467500", "153907.802500", "153910.137500", "153912.470000", "153914.805000", "153917.137500", "153919.472500", "153921.807500", "153924.140000", "153926.475000", "153928.807500", "153931.142500", "153933.477500", "153935.810000", "153938.145000", "153940.477500", "153942.812500", "153945.147500", "153947.480000", "153949.815000", "153952.147500", "153954.482500", "153956.817500", "153959.150000", "154001.485000", "154003.817500", "154006.152500", "154008.487500", "154010.820000", "154013.155000", "154015.487500", "154017.822500", "154020.157500", "154022.490000", "154024.825000", "154027.157500", "154029.492500", "154031.827500", "154034.160000", "154036.495000", "154038.827500", "154041.162500", "154043.497500", "154045.830000", "154048.165000", "154050.497500", "154052.832500", "154055.167500", "154057.500000", "154059.835000", "154102.167500", "154104.502500", "154106.837500", "154109.170000", "154111.505000", "154113.837500", "154116.172500", "154118.507500", "154120.840000", "154123.175000", "154125.507500", "154127.842500", "154130.177500", "154132.510000", "154134.845000", "154137.177500", "154139.512500", "154141.847500", "154144.180000", "154146.515000", "154148.847500", "154151.182500", "154153.517500", "154155.850000"],
      "ContentTime": ["153857.277000", "153857.281000", "153857.284000", "153857.287000", "153857.290000", "153857.293000", "153857.296000", "153857.300000", "153857.303000", "153857.311000", "153857.314000", "153857.317000", "153857.321000", "153857.324000", "153857.330000", "153857.333000", "153857.336000", "153857.339000", "153857.342000", "153857.345000", "153857.348000", "153957.251000", "153957.254000", "153957.257000", "153957.261000", "153957.264000", "153957.267000", "153957.270000", "153957.273000", "153957.276000", "153957.279000", "153957.282000", "153957.286000", "153957.289000", "153957.292000", "153957.295000", "153957.298000", "153957.301000", "153957.304000", "153957.308000", "153957.311000", "153957.314000", "153957.317000", "153957.320000", "153957.323000", "153957.326000", "153957.335000", "154057.250000", "154057.253000", "154057.256000", "154057.260000", "154057.263000", "154057.266000", "154057.269000", "154057.272000", "154057.275000", "154057.278000", "154057.281000", "154057.284000", "154057.287000", "154057.291000", "154057.294000", "154057.304000", "154057.307000", "154057.310000", "154057.313000", "154057.316000", "154057.329000", "154057.332000", "154057.335000", "154057.339000", "154057.342000", "154157.251000", "154157.254000", "154157.257000", "154157.261000", "154157.264000", "154157.267000", "154157.270000", "154157.273000", "154157.276000", "154157.279000", "154157.282000", "154157.285000", "154157.289000", "154157.292000", "154157.295000", "154157.298000", "154157.301000", "154157.304000", "154157.307000", "154157.311000", "154157.314000", "154157.317000", "154157.320000", "154157.323000", "154157.326000", "154157.330000", "154200.280000"],
      "InstanceCreationTime": ["153857.277000", "153857.281000", "153857.284000", "153857.287000", "153857.290000", "153857.293000", "153857.296000", "153857.300000", "153857.303000", "153857.311000", "153857.314000", "153857.317000", "153857.321000", "153857.324000", "153857.330000", "153857.333000", "153857.336000", "153857.339000", "153857.342000", "153857.345000", "153857.348000", "153957.251000", "153957.254000", "153957.257000", "153957.261000", "153957.264000", "153957.267000", "153957.270000", "153957.273000", "153957.276000", "153957.279000", "153957.282000", "153957.286000", "153957.289000", "153957.292000", "153957.295000", "153957.298000", "153957.301000", "153957.304000", "153957.308000", "153957.311000", "153957.314000", "153957.317000", "153957.320000", "153957.323000", "153957.326000", "153957.335000", "154057.250000", "154057.253000", "154057.256000", "154057.260000", "154057.263000", "154057.266000", "154057.269000", "154057.272000", "154057.275000", "154057.278000", "154057.281000", "154057.284000", "154057.287000", "154057.291000", "154057.294000", "154057.304000", "154057.307000", "154057.310000", "154057.313000", "154057.316000", "154057.329000", "154057.332000", "154057.335000", "154057.339000", "154057.342000", "154157.251000", "154157.254000", "154157.257000", "154157.261000", "154157.264000", "154157.267000", "154157.270000", "154157.273000", "154157.276000", "154157.279000", "154157.282000", "154157.285000", "154157.289000", "154157.292000", "154157.295000", "154157.298000", "154157.301000", "154157.304000", "154157.307000", "154157.311000", "154157.314000", "154157.317000", "154157.320000", "154157.323000", "154157.326000", "154157.330000", "154200.280000"],
      "InstanceNumber": [1, 2, 3, 4, 5, 6, 7, 8, 9, 10, 11, 12, 13, 14, 15, 16, 17, 18, 19, 20, 21, 22, 23, 24, 25, 26, 27, 28, 29, 30, 31, 32, 33, 34, 35, 36, 37, 38, 39, 40, 41, 42, 43, 44, 45, 46, 47, 48, 49, 50, 51, 52, 53, 54, 55, 56, 57, 58, 59, 60, 61, 62, 63, 64, 65, 66, 67, 68, 69, 70, 71, 72, 73, 74, 75, 76, 77, 78, 79, 80, 81, 82, 83, 84, 85, 86, 87, 88, 89, 90, 91, 92, 93, 94, 95, 96, 97, 98, 99],
      "LargestImagePixelValue": [32530, 31977, 9209, 3550, 9614, 3757, 9225, 4426, 10041, 4097, 8579, 3879, 9246, 4553, 8177, 4251, 8757, 30637, 3938, 9879, 3877, 8906, 3986, 10053, 3724, 8174, 3906, 8450, 4731, 8314, 4099, 9499, 3460, 30686, 8315, 4217, 9584, 3541, 8100, 3793, 8052, 3951, 7870, 4283, 10310, 3828, 9722, 4629, 8693, 30120, 3748, 8023, 4252, 7682, 4538, 8166, 4457, 9661, 3907, 9491, 4151, 8446, 3533, 9273, 4339, 31049, 7918, 4191, 8896, 3570, 8241, 3824, 8582, 3770, 8323, 4486, 8717, 4082, 8679, 3722, 8242, 30772, 3817, 9387, 3731, 9470, 4447, 9830, 3557, 8029, 3665, 9776, 3565, 9389, 4052, 8330, 4875, 8509, 3446],
      "SequenceName": [
 "ep_b5#1",
 "ep_b5#1",
 "ep_b1490#2",
 "ep_b2990#3",
 "ep_b1495#4",
 "ep_b3005#5",
 "ep_b1500#6",
 "ep_b2985#7",
 "ep_b1495#8",
 "ep_b3005#9",
 "ep_b1490#10",
 "ep_b2995#11",
 "ep_b1495#12",
 "ep_b2990#13",
 "ep_b1500#14",
 "ep_b2985#15",
 "ep_b1500#16",
 "ep_b5#17",
 "ep_b3005#18",
 "ep_b1490#19",
 "ep_b2995#20",
 "ep_b1495#21",
 "ep_b3000#22",
 "ep_b1495#23",
 "ep_b3000#24",
 "ep_b1490#25",
 "ep_b2985#26",
 "ep_b1505#27",
 "ep_b2990#28",
 "ep_b1495#29",
 "ep_b3000#30",
 "ep_b1490#31",
 "ep_b3000#32",
 "ep_b5#33",
 "ep_b1505#34",
 "ep_b3000#35",
 "ep_b1490#36",
 "ep_b2985#37",
 "ep_b1495#38",
 "ep_b2995#39",
 "ep_b1500#40",
 "ep_b2995#41",
 "ep_b1500#42",
 "ep_b2990#43",
 "ep_b1495#44",
 "ep_b3000#45",
 "ep_b1495#46",
 "ep_b3000#47",
 "ep_b1490#48",
 "ep_b5#49",
 "ep_b3000#50",
 "ep_b1495#51",
 "ep_b2990#52",
 "ep_b1505#53",
 "ep_b2995#54",
 "ep_b1495#55",
 "ep_b2990#56",
 "ep_b1490#57",
 "ep_b2995#58",
 "ep_b1500#59",
 "ep_b3000#60",
 "ep_b1500#61",
 "ep_b2985#62",
 "ep_b1500#63",
 "ep_b2990#64",
 "ep_b5#65",
 "ep_b1505#66",
 "ep_b3005#67",
 "ep_b1495#68",
 "ep_b3000#69",
 "ep_b1505#70",
 "ep_b3005#71",
 "ep_b1500#72",
 "ep_b3005#73",
 "ep_b1495#74",
 "ep_b2995#75",
 "ep_b1495#76",
 "ep_b2995#77",
 "ep_b1500#78",
 "ep_b3000#79",
 "ep_b1490#80",
 "ep_b5#81",
 "ep_b2990#82",
 "ep_b1500#83",
 "ep_b2985#84",
 "ep_b1495#85",
 "ep_b2995#86",
 "ep_b1495#87",
 "ep_b2995#88",
 "ep_b1490#89",
 "ep_b2985#90",
 "ep_b1500#91",
 "ep_b3000#92",
 "ep_b1495#93",
 "ep_b3005#94",
 "ep_b1495#95",
 "ep_b2990#96",
 "ep_b1500#97",
 "ep_b3000#98"
],
      "TriggerTime": [13297.5, 15632.5, 17965.0, 20300.0, 22635.0, 24967.5, 27302.5, 29635.0, 31970.0, 34305.0, 36637.5, 38972.5, 41305.0, 43640.0, 45975.0, 48307.5, 50642.5, 52975.0, 55310.0, 57645.0, 59977.5, 62312.5, 64645.0, 66980.0, 69315.0, 71647.5, 73982.5, 76315.0, 78650.0, 80985.0, 83317.5, 85652.5, 87985.0, 90320.0, 92655.0, 94987.5, 97322.5, 99655.0, 101990.0, 104325.0, 106657.5, 108992.5, 111325.0, 113660.0, 115995.0, 118327.5, 120662.5, 122995.0, 125330.0, 127665.0, 129997.5, 132332.5, 134665.0, 137000.0, 139335.0, 141667.5, 144002.5, 146335.0, 148670.0, 151005.0, 153337.5, 155672.5, 158005.0, 160340.0, 162675.0, 165007.5, 167342.5, 169675.0, 172010.0, 174345.0, 176677.5, 179012.5, 181345.0, 183680.0, 186015.0, 188347.5, 190682.5, 193015.0, 195350.0, 197685.0, 200017.5, 202352.5, 204685.0, 207020.0, 209355.0, 211687.5, 214022.5, 216355.0, 218690.0, 221025.0, 223357.5, 225692.5, 228025.0, 230360.0, 232695.0, 235027.5, 237362.5, 239695.0, 242030.0],
      "WindowCenter": [7012.0, 7018.0, 2580.0, 1436.0, 2646.0, 1481.0, 2646.0, 1455.0, 2581.0, 1453.0, 2556.0, 1481.0, 2684.0, 1508.0, 2570.0, 1464.0, 2555.0, 6897.0, 1477.0, 2626.0, 1479.0, 2609.0, 1452.0, 2562.0, 1498.0, 2552.0, 1441.0, 2607.0, 1503.0, 2608.0, 1471.0, 2607.0, 1456.0, 6917.0, 2586.0, 1457.0, 2552.0, 1432.0, 2580.0, 1501.0, 2584.0, 1435.0, 2558.0, 1512.0, 2582.0, 1458.0, 2565.0, 1489.0, 2585.0, 6944.0, 1447.0, 2617.0, 1495.0, 2544.0, 1488.0, 2578.0, 1555.0, 2637.0, 1446.0, 2577.0, 1441.0, 2552.0, 1432.0, 2659.0, 1506.0, 6912.0, 2561.0, 1495.0, 2597.0, 1466.0, 2572.0, 1449.0, 2591.0, 1441.0, 2540.0, 1490.0, 2586.0, 1522.0, 2641.0, 1448.0, 2566.0, 6946.0, 1480.0, 2547.0, 1441.0, 2665.0, 1468.0, 2562.0, 1439.0, 2553.0, 1435.0, 2575.0, 1456.0, 2677.0, 1474.0, 2581.0, 1484.0, 2578.0, 1470.0],
      "WindowWidth": [15105.0, 15119.0, 6143.0, 3762.0, 6279.0, 3855.0, 6267.0, 3786.0, 6139.0, 3777.0, 6098.0, 3861.0, 6359.0, 3917.0, 6135.0, 3824.0, 6096.0, 14849.0, 3844.0, 6241.0, 3852.0, 6196.0, 3803.0, 6095.0, 3904.0, 6089.0, 3755.0, 6200.0, 3900.0, 6204.0, 3827.0, 6197.0, 3813.0, 14899.0, 6166.0, 3798.0, 6080.0, 3741.0, 6143.0, 3917.0, 6160.0, 3758.0, 6107.0, 3928.0, 6142.0, 3795.0, 6103.0, 3874.0, 6162.0, 14944.0, 3779.0, 6228.0, 3893.0, 6084.0, 3868.0, 6136.0, 4018.0, 6263.0, 3778.0, 6133.0, 3761.0, 6095.0, 3742.0, 6295.0, 3917.0, 14876.0, 6118.0, 3890.0, 6186.0, 3835.0, 6133.0, 3789.0, 6173.0, 3754.0, 6067.0, 3876.0, 6166.0, 3943.0, 6271.0, 3787.0, 6114.0, 14943.0, 3854.0, 6075.0, 3754.0, 6317.0, 3817.0, 6096.0, 3778.0, 6093.0, 3754.0, 6127.0, 3818.0, 6343.0, 3838.0, 6150.0, 3856.0, 6144.0, 3841.0]
    },
    "slices": {}
  }
}