{
  "AcquisitionMatrixPE": 110,
  "AcquisitionNumber": 1,
  "AcquisitionTime": "15:56:29.200000",
  "BandwidthPerPixelPhaseEncode": 12.987,
  "BaseResolution": 110,
  "BodyPartExamined": "BRAIN",
  "CoilCombinationMethod": "Sum of Squares",
  "ConsistencyInfo": "N4_VE11C_LATEST_20160120",
  "ConversionSoftware": "dcm2niix",
  "ConversionSoftwareVersion": "v1.0.20211006",
  "DerivedVendorReportedEchoSpacing": 0.000700001,
  "DeviceSerialNumber": "167006",
  "DiffusionScheme": "Monopolar",
  "DwellTime": 2.7e-06,
  "EchoTime": 0.0816,
  "EchoTrainLength": 83,
  "EffectiveEchoSpacing": 0.000700001,
  "FlipAngle": 78,
  "HeudiconvVersion": "0.5.3.post569+g418601f",
  "ImageComments": "Unaliased MB3/PE3/LB SENSE1",
  "ImageOrientationPatientDICOM": [1, 0, 0, 0, 0.939693, -0.34202],
  "ImageOrientationText": "Tra>Cor(-20.0)",
  "ImageType": [
    "ORIGINAL",
    "PRIMARY",
    "DIFFUSION",
    "NONE",
    "MB",
    "ND",
    "MOSAIC"
],
  "ImagingFrequency": 123.259,
  "InPlanePhaseEncodingDirectionDICOM": "COL",
  "InstitutionAddress": "Chemin Queen-Mary 4565,Montreal,District,CA,H3W 1W5",
  "InstitutionName": "IUGM",
  "InstitutionalDepartmentName": "Department",
  "MRAcquisitionType": "2D",
  "MagneticFieldStrength": 3,
  "Manufacturer": "Siemens",
  "ManufacturersModelName": "Prisma_fit",
  "MatrixCoilMode": "SENSE",
  "Modality": "MR",
  "MultibandAccelerationFactor": 3,
  "PartialFourier": 0.75,
  "PatientPosition": "HFS",
  "PercentPhaseFOV": 100,
  "PercentSampling": 100,
  "PhaseEncodingDirection": "j-",
  "PhaseEncodingSteps": 83,
  "PhaseResolution": 1,
  "PixelBandwidth": 1685,
  "ProcedureStepDescription": "anat^generic",
  "ProtocolName": "dMRI_dir98_AP_test_cmrr",
  "PulseSequenceDetails": "%CustomerSeq%\\cmrr_mbep2d_diff",
  "ReceiveCoilActiveElements": "HC1-6",
  "ReceiveCoilName": "HeadNeck_64",
  "ReconMatrixPE": 110,
  "RepetitionTime": 2.334,
  "SAR": 0.130644,
  "ScanOptions": "PFP\\EXT",
  "ScanningSequence": "EP",
  "SequenceName": "ep_b5#1",
  "SequenceVariant": "SK\\SS",
  "SeriesDescription": "dMRI_dir98_AP_test_cmrr",
  "SeriesNumber": 7,
  "ShimSetting": [622, -7242, -8837, 460, 31, -356, 37, 34],
  "SliceThickness": 2,
  "SliceTiming": [0, 1.2175, 0.1225, 1.34, 0.2425, 1.46, 0.365, 1.5825, 0.4875, 1.705, 0.6075, 1.8275, 0.73, 1.9475, 0.8525, 2.07, 0.975, 2.1925, 1.095, 0, 1.2175, 0.1225, 1.34, 0.2425, 1.46, 0.365, 1.5825, 0.4875, 1.705, 0.6075, 1.8275, 0.73, 1.9475, 0.8525, 2.07, 0.975, 2.1925, 1.095, 0, 1.2175, 0.1225, 1.34, 0.2425, 1.46, 0.365, 1.5825, 0.4875, 1.705, 0.6075, 1.8275, 0.73, 1.9475, 0.8525, 2.07, 0.975, 2.1925, 1.095],
  "SoftwareVersions": "syngo MR E11",
  "SpacingBetweenSlices": 2,
  "StationName": "MRC35049",
  "TotalReadoutTime": 0.0763001,
  "TxRefAmp": 234.299,
  "WipMemBlock": "80f2a494-16c1-4e0b-a3aa-d31c549d90cd||Sequence: R016 ve11c/master r/e634e98; Dec 19 2017 11:11:25 by eja",
  "dcmmeta_affine": [
    [-2.0, 0.0, 0.0, 109.49686431884766],
    [0.0, 1.879385232925415, -0.6840403079986572, -77.08287811279297],
    [0.0, 0.6840403079986572, 1.879385232925415, -68.35994720458984],
    [0.0, 0.0, 0.0, 1.0]
],
  "dcmmeta_reorient_transform": [
    [0.0, -1.0, 0.0, 109.0],
    [1.0, 0.0, 0.0, 0.0],
    [0.0, 0.0, 1.0, 0.0],
    [0.0, 0.0, 0.0, 1.0]
],
  "dcmmeta_shape": [110, 110, 57, 99],
  "dcmmeta_slice_dim": 2,
  "dcmmeta_version": 0.6,
  "global": {
    "const": {
      "AcquisitionMatrix": [110, 0, 0, 110],
      "AngioFlag": "N",
      "BitsAllocated": 16,
      "BitsStored": 16,
      "BodyPartExamined": "BRAIN",
      "CardiacNumberOfImages": 1,
      "Columns": 880,
      "EchoNumbers": 1,
      "EchoTime": 81.6,
      "EchoTrainLength": 83,
      "FlipAngle": 78.0,
      "HighBit": 15,
      "ImageOrientationPatient": [1.0, 0.0, 0.0, 0.0, 0.93969261856831, -0.3420201494185],
      "ImagePositionPatient": [-879.49686384201, -851.33342546743, 269.55596139243],
      "ImageType": [
        "ORIGINAL",
        "PRIMARY",
        "DIFFUSION",
        "NONE",
        "MB",
        "ND",
        "MOSAIC"
],
      "ImagedNucleus": "1H",
      "ImagingFrequency": 123.258965,
      "InPlanePhaseEncodingDirection": "COL",
      "MRAcquisitionType": "2D",
      "MagneticFieldStrength": 3.0,
      "Manufacturer": "SIEMENS",
      "ManufacturerModelName": "Prisma_fit",
      "Modality": "MR",
      "NominalInterval": 0,
      "NumberOfAverages": 1.0,
      "NumberOfPhaseEncodingSteps": 83,
      "PercentPhaseFieldOfView": 100.0,
      "PercentSampling": 100.0,
      "PerformedProcedureStepStartTime": "145236.907000",
      "PhotometricInterpretation": "MONOCHROME2",
      "PixelBandwidth": 1685.0,
      "PixelRepresentation": 0,
      "PixelSpacing": [2.0, 2.0],
      "ProtocolName": "dMRI_dir98_AP_test_cmrr",
      "RepetitionTime": 2334.0,
      "Rows": 880,
      "SAR": 0.13064379241225,
      "SamplesPerPixel": 1,
      "ScanOptions": [
        "PFP",
        "EXT"
],
      "ScanningSequence": "EP",
      "SequenceVariant": [
        "SK",
        "SS"
],
      "SeriesDescription": "dMRI_dir98_AP_test_cmrr",
      "SeriesNumber": 7,
      "SeriesTime": "155728.184000",
      "SliceLocation": -37.87343817176,
      "SliceThickness": 2.0,
      "SmallestImagePixelValue": 0,
      "SoftwareVersions": "syngo MR E11",
      "SpacingBetweenSlices": 2.0000000573632,
      "SpecificCharacterSet": "ISO_IR 100",
      "StudyID": "1",
      "StudyTime": "145236.818000",
      "TransmitCoilName": "Body",
      "VariableFlipAngleFlag": "N",
      "WindowCenterWidthExplanation": "Algo1",
      "dBdt": 0.0},
    "slices": {}
  },
  "time": {
    "samples": {
      "AcquisitionNumber": [1, 2, 3, 4, 5, 6, 7, 8, 9, 10, 11, 12, 13, 14, 15, 16, 17, 18, 19, 20, 21, 22, 23, 24, 25, 26, 27, 28, 29, 30, 31, 32, 33, 34, 35, 36, 37, 38, 39, 40, 41, 42, 43, 44, 45, 46, 47, 48, 49, 50, 51, 52, 53, 54, 55, 56, 57, 58, 59, 60, 61, 62, 63, 64, 65, 66, 67, 68, 69, 70, 71, 72, 73, 74, 75, 76, 77, 78, 79, 80, 81, 82, 83, 84, 85, 86, 87, 88, 89, 90, 91, 92, 93, 94, 95, 96, 97, 98, 99],
      "AcquisitionTime": ["155629.200000", "155631.535000", "155633.867500", "155636.202500", "155638.535000", "155640.870000", "155643.205000", "155645.537500", "155647.872500", "155650.205000", "155652.540000", "155654.875000", "155657.207500", "155659.542500", "155701.875000", "155704.210000", "155706.545000", "155708.877500", "155711.212500", "155713.545000", "155715.880000", "155718.215000", "155720.547500", "155722.882500", "155725.215000", "155727.550000", "155729.885000", "155732.217500", "155734.552500", "155736.885000", "155739.220000", "155741.555000", "155743.887500", "155746.222500", "155748.555000", "155750.890000", "155753.225000", "155755.557500", "155757.892500", "155800.225000", "155802.560000", "155804.895000", "155807.227500", "155809.562500", "155811.895000", "155814.230000", "155816.565000", "155818.897500", "155821.232500", "155823.565000", "155825.900000", "155828.235000", "155830.567500", "155832.902500", "155835.235000", "155837.570000", "155839.905000", "155842.237500", "155844.572500", "155846.905000", "155849.240000", "155851.575000", "155853.907500", "155856.242500", "155858.575000", "155900.910000", "155903.245000", "155905.577500", "155907.912500", "155910.245000", "155912.580000", "155914.915000", "155917.247500", "155919.582500", "155921.915000", "155924.250000", "155926.585000", "155928.917500", "155931.252500", "155933.585000", "155935.920000", "155938.255000", "155940.587500", "155942.922500", "155945.255000", "155947.590000", "155949.925000", "155952.257500", "155954.592500", "155956.925000", "155959.260000", "160001.595000", "160003.927500", "160006.262500", "160008.595000", "160010.930000", "160013.265000", "160015.597500", "160017.932500"],
      "ContentTime": ["155728.187000", "155728.199000", "155728.202000", "155728.206000", "155728.209000", "155728.212000", "155728.215000", "155728.218000", "155728.229000", "155728.232000", "155728.235000", "155728.238000", "155728.241000", "155728.244000", "155728.247000", "155728.251000", "155728.254000", "155728.257000", "155728.260000", "155728.263000", "155728.266000", "155728.269000", "155728.272000", "155728.275000", "155728.278000", "155828.161000", "155828.164000", "155828.167000", "155828.170000", "155828.173000", "155828.176000", "155828.180000", "155828.183000", "155828.186000", "155828.189000", "155828.192000", "155828.195000", "155828.198000", "155828.201000", "155828.204000", "155828.211000", "155828.214000", "155828.217000", "155828.220000", "155828.224000", "155828.227000", "155828.230000", "155828.233000", "155828.236000", "155828.239000", "155928.161000", "155928.165000", "155928.168000", "155928.171000", "155928.175000", "155928.178000", "155928.181000", "155928.184000", "155928.187000", "155928.190000", "155928.193000", "155928.197000", "155928.200000", "155928.203000", "155928.206000", "155928.209000", "155928.212000", "155928.215000", "155928.218000", "155928.221000", "155928.224000", "155928.227000", "155928.230000", "155928.233000", "155928.237000", "155928.240000", "160022.846000", "160022.850000", "160022.853000", "160022.856000", "160022.860000", "160022.864000", "160022.868000", "160022.873000", "160022.877000", "160022.881000", "160022.885000", "160022.888000", "160022.892000", "160022.895000", "160022.899000", "160022.904000", "160022.909000", "160022.913000", "160022.921000", "160022.926000", "160022.931000", "160022.937000", "160022.940000"],
      "InstanceCreationTime": ["155728.187000", "155728.199000", "155728.202000", "155728.206000", "155728.209000", "155728.212000", "155728.215000", "155728.218000", "155728.229000", "155728.232000", "155728.235000", "155728.238000", "155728.241000", "155728.244000", "155728.247000", "155728.251000", "155728.254000", "155728.257000", "155728.260000", "155728.263000", "155728.266000", "155728.269000", "155728.272000", "155728.275000", "155728.278000", "155828.161000", "155828.164000", "155828.167000", "155828.170000", "155828.173000", "155828.176000", "155828.180000", "155828.183000", "155828.186000", "155828.189000", "155828.192000", "155828.195000", "155828.198000", "155828.201000", "155828.204000", "155828.211000", "155828.214000", "155828.217000", "155828.220000", "155828.224000", "155828.227000", "155828.230000", "155828.233000", "155828.236000", "155828.239000", "155928.161000", "155928.165000", "155928.168000", "155928.171000", "155928.175000", "155928.178000", "155928.181000", "155928.184000", "155928.187000", "155928.190000", "155928.193000", "155928.197000", "155928.200000", "155928.203000", "155928.206000", "155928.209000", "155928.212000", "155928.215000", "155928.218000", "155928.221000", "155928.224000", "155928.227000", "155928.230000", "155928.233000", "155928.237000", "155928.240000", "160022.846000", "160022.850000", "160022.853000", "160022.856000", "160022.860000", "160022.864000", "160022.868000", "160022.873000", "160022.877000", "160022.881000", "160022.885000", "160022.888000", "160022.892000", "160022.895000", "160022.899000", "160022.904000", "160022.909000", "160022.913000", "160022.921000", "160022.926000", "160022.931000", "160022.937000", "160022.940000"],
      "InstanceNumber": [1, 2, 3, 4, 5, 6, 7, 8, 9, 10, 11, 12, 13, 14, 15, 16, 17, 18, 19, 20, 21, 22, 23, 24, 25, 26, 27, 28, 29, 30, 31, 32, 33, 34, 35, 36, 37, 38, 39, 40, 41, 42, 43, 44, 45, 46, 47, 48, 49, 50, 51, 52, 53, 54, 55, 56, 57, 58, 59, 60, 61, 62, 63, 64, 65, 66, 67, 68, 69, 70, 71, 72, 73, 74, 75, 76, 77, 78, 79, 80, 81, 82, 83, 84, 85, 86, 87, 88, 89, 90, 91, 92, 93, 94, 95, 96, 97, 98, 99],
      "LargestImagePixelValue": [38700, 38689, 8984, 3483, 8056, 4233, 8193, 4602, 7987, 4211, 8491, 3541, 9088, 4276, 8753, 4585, 7745, 37467, 4640, 9035, 3757, 7656, 3604, 7696, 4123, 8495, 3786, 8823, 4204, 7963, 4831, 7779, 3936, 36796, 9163, 3947, 8443, 4224, 7980, 3504, 8008, 3568, 8109, 4781, 8432, 3781, 7441, 4692, 8062, 37316, 3846, 8238, 3478, 8899, 4090, 7799, 4086, 9228, 4102, 7805, 4189, 8905, 4886, 8112, 3569, 37462, 8726, 4389, 7849, 3499, 8013, 3622, 7965, 3945, 7691, 4080, 8350, 3662, 8588, 4324, 8125, 35631, 4931, 7726, 3720, 9089, 4251, 7695, 3570, 8637, 3838, 7509, 3615, 8231, 4286, 8170, 4343, 8363, 4395],
      "SequenceName": [
 "ep_b5#1",
 "ep_b5#1",
 "ep_b1490#2",
 "ep_b2990#3",
 "ep_b1495#4",
 "ep_b3005#5",
 "ep_b1500#6",
 "ep_b2985#7",
 "ep_b1495#8",
 "ep_b3005#9",
 "ep_b1490#10",
 "ep_b2995#11",
 "ep_b1495#12",
 "ep_b2990#13",
 "ep_b1500#14",
 "ep_b2985#15",
 "ep_b1500#16",
 "ep_b5#17",
 "ep_b3005#18",
 "ep_b1490#19",
 "ep_b2995#20",
 "ep_b1495#21",
 "ep_b3000#22",
 "ep_b1495#23",
 "ep_b3000#24",
 "ep_b1490#25",
 "ep_b2985#26",
 "ep_b1505#27",
 "ep_b2990#28",
 "ep_b1495#29",
 "ep_b3000#30",
 "ep_b1490#31",
 "ep_b3000#32",
 "ep_b5#33",
 "ep_b1505#34",
 "ep_b3000#35",
 "ep_b1490#36",
 "ep_b2985#37",
 "ep_b1495#38",
 "ep_b2995#39",
 "ep_b1500#40",
 "ep_b2995#41",
 "ep_b1500#42",
 "ep_b2990#43",
 "ep_b1495#44",
 "ep_b3000#45",
 "ep_b1495#46",
 "ep_b3000#47",
 "ep_b1490#48",
 "ep_b5#49",
 "ep_b3000#50",
 "ep_b1495#51",
 "ep_b2990#52",
 "ep_b1505#53",
 "ep_b2995#54",
 "ep_b1495#55",
 "ep_b2990#56",
 "ep_b1490#57",
 "ep_b2995#58",
 "ep_b1500#59",
 "ep_b3000#60",
 "ep_b1500#61",
 "ep_b2985#62",
 "ep_b1500#63",
 "ep_b2990#64",
 "ep_b5#65",
 "ep_b1505#66",
 "ep_b3005#67",
 "ep_b1495#68",
 "ep_b3000#69",
 "ep_b1505#70",
 "ep_b3005#71",
 "ep_b1500#72",
 "ep_b3005#73",
 "ep_b1495#74",
 "ep_b2995#75",
 "ep_b1495#76",
 "ep_b2995#77",
 "ep_b1500#78",
 "ep_b3000#79",
 "ep_b1490#80",
 "ep_b5#81",
 "ep_b2990#82",
 "ep_b1500#83",
 "ep_b2985#84",
 "ep_b1495#85",
 "ep_b2995#86",
 "ep_b1495#87",
 "ep_b2995#88",
 "ep_b1490#89",
 "ep_b2985#90",
 "ep_b1500#91",
 "ep_b3000#92",
 "ep_b1495#93",
 "ep_b3005#94",
 "ep_b1495#95",
 "ep_b2990#96",
 "ep_b1500#97",
 "ep_b3000#98"
],
      "TriggerTime": [13297.5, 15630.0, 17965.0, 20300.0, 22632.5, 24967.5, 27300.0, 29635.0, 31970.0, 34302.5, 36637.5, 38970.0, 41305.0, 43640.0, 45972.5, 48307.5, 50640.0, 52975.0, 55310.0, 57642.5, 59977.5, 62310.0, 64645.0, 66980.0, 69312.5, 71647.5, 73980.0, 76315.0, 78650.0, 80982.5, 83317.5, 85650.0, 87985.0, 90320.0, 92652.5, 94987.5, 97320.0, 99655.0, 101990.0, 104322.5, 106657.5, 108990.0, 111325.0, 113660.0, 115992.5, 118327.5, 120660.0, 122995.0, 125330.0, 127662.5, 129997.5, 132330.0, 134665.0, 137000.0, 139332.5, 141667.5, 144000.0, 146335.0, 148670.0, 151002.5, 153337.5, 155670.0, 158005.0, 160340.0, 162672.5, 165007.5, 167340.0, 169675.0, 172010.0, 174342.5, 176677.5, 179010.0, 181345.0, 183680.0, 186012.5, 188347.5, 190680.0, 193015.0, 195350.0, 197682.5, 200017.5, 202350.0, 204685.0, 207020.0, 209352.5, 211687.5, 214020.0, 216355.0, 218690.0, 221022.5, 223357.5, 225690.0, 228025.0, 230360.0, 232692.5, 235027.5, 237360.0, 239695.0, 242030.0],
      "WindowCenter": [6791.0, 6807.0, 2441.0, 1383.0, 2459.0, 1422.0, 2449.0, 1410.0, 2402.0, 1388.0, 2408.0, 1377.0, 2483.0, 1420.0, 2436.0, 1427.0, 2384.0, 6720.0, 1447.0, 2459.0, 1397.0, 2423.0, 1367.0, 2394.0, 1430.0, 2411.0, 1379.0, 2447.0, 1420.0, 2440.0, 1420.0, 2425.0, 1396.0, 6680.0, 2438.0, 1368.0, 2396.0, 1393.0, 2412.0, 1407.0, 2416.0, 1357.0, 2395.0, 1450.0, 2416.0, 1376.0, 2375.0, 1446.0, 2415.0, 6670.0, 1383.0, 2453.0, 1376.0, 2407.0, 1423.0, 2400.0, 1428.0, 2454.0, 1395.0, 2404.0, 1379.0, 2409.0, 1401.0, 2455.0, 1382.0, 6653.0, 2409.0, 1426.0, 2429.0, 1386.0, 2389.0, 1360.0, 2426.0, 1360.0, 2369.0, 1416.0, 2428.0, 1390.0, 2452.0, 1406.0, 2393.0, 6657.0, 1434.0, 2376.0, 1363.0, 2449.0, 1404.0, 2371.0, 1359.0, 2394.0, 1382.0, 2373.0, 1378.0, 2468.0, 1400.0, 2412.0, 1417.0, 2411.0, 1420.0],
      "WindowWidth": [14907.0, 14933.0, 5874.0, 3635.0, 5934.0, 3706.0, 5898.0, 3694.0, 5811.0, 3633.0, 5813.0, 3637.0, 5963.0, 3729.0, 5872.0, 3734.0, 5776.0, 14729.0, 3757.0, 5917.0, 3666.0, 5849.0, 3623.0, 5798.0, 3741.0, 5817.0, 3620.0, 5881.0, 3735.0, 5884.0, 3708.0, 5870.0, 3661.0, 14652.0, 5862.0, 3604.0, 5787.0, 3642.0, 5823.0, 3706.0, 5835.0, 3586.0, 5789.0, 3763.0, 5833.0, 3610.0, 5760.0, 3782.0, 5836.0, 14610.0, 3632.0, 5900.0, 3634.0, 5804.0, 3743.0, 5807.0, 3736.0, 5897.0, 3654.0, 5822.0, 3619.0, 5814.0, 3650.0, 5909.0, 3654.0, 14581.0, 5809.0, 3726.0, 5864.0, 3648.0, 5781.0, 3596.0, 5856.0, 3572.0, 5743.0, 3713.0, 5856.0, 3666.0, 5899.0, 3684.0, 5783.0, 14594.0, 3722.0, 5761.0, 3582.0, 5891.0, 3692.0, 5749.0, 3591.0, 5779.0, 3627.0, 5763.0, 3636.0, 5938.0, 3676.0, 5823.0, 3721.0, 5820.0, 3701.0]
    },
    "slices": {}
  }
}