{
  "AcquisitionMatrixPE": 110,
  "AcquisitionNumber": 1,
  "AcquisitionTime": "09:29:47.545000",
  "BandwidthPerPixelPhaseEncode": 12.987,
  "BaseResolution": 110,
  "BodyPartExamined": "BRAIN",
  "CoilCombinationMethod": "Sum of Squares",
  "ConsistencyInfo": "N4_VE11C_LATEST_20160120",
  "ConversionSoftware": "dcm2niix",
  "ConversionSoftwareVersion": "v1.0.20211006",
  "DerivedVendorReportedEchoSpacing": 0.000700001,
  "DeviceSerialNumber": "167006",
  "DiffusionScheme": "Monopolar",
  "DwellTime": 2.7e-06,
  "EchoTime": 0.0816,
  "EchoTrainLength": 83,
  "EffectiveEchoSpacing": 0.000700001,
  "FlipAngle": 78,
  "HeudiconvVersion": "0.5.3.post569+g418601f",
  "ImageComments": "Unaliased MB3/PE3/LB SENSE1",
  "ImageOrientationPatientDICOM": [1, 0, 0, 0, 0.857167, -0.515038],
  "ImageOrientationText": "Tra>Cor(-31.0)",
  "ImageType": [
    "ORIGINAL",
    "PRIMARY",
    "DIFFUSION",
    "NONE",
    "MB",
    "ND",
    "MOSAIC"
],
  "ImagingFrequency": 123.259,
  "InPlanePhaseEncodingDirectionDICOM": "COL",
  "InstitutionAddress": "Chemin Queen-Mary 4565,Montreal,District,CA,H3W 1W5",
  "InstitutionName": "IUGM",
  "InstitutionalDepartmentName": "Department",
  "MRAcquisitionType": "2D",
  "MagneticFieldStrength": 3,
  "Manufacturer": "Siemens",
  "ManufacturersModelName": "Prisma_fit",
  "MatrixCoilMode": "SENSE",
  "Modality": "MR",
  "MultibandAccelerationFactor": 3,
  "PartialFourier": 0.75,
  "PatientPosition": "HFS",
  "PercentPhaseFOV": 100,
  "PercentSampling": 100,
  "PhaseEncodingDirection": "j",
  "PhaseEncodingSteps": 83,
  "PhaseResolution": 1,
  "PixelBandwidth": 1685,
  "ProcedureStepDescription": "anat^generic",
  "ProtocolName": "dMRI_dir98_PA_test_cmrr",
  "PulseSequenceDetails": "%CustomerSeq%\\cmrr_mbep2d_diff",
  "ReceiveCoilActiveElements": "HC1-7",
  "ReceiveCoilName": "HeadNeck_64",
  "ReconMatrixPE": 110,
  "RepetitionTime": 2.334,
  "SAR": 0.133732,
  "ScanOptions": "PFP\\EXT",
  "ScanningSequence": "EP",
  "SequenceName": "ep_b5#1",
  "SequenceVariant": "SK\\SS",
  "SeriesDescription": "dMRI_dir98_PA_test_cmrr",
  "SeriesNumber": 11,
  "ShimSetting": [626, -7190, -8868, 417, -27, -185, 41, -35],
  "SliceThickness": 2,
  "SliceTiming": [0, 1.2175, 0.1225, 1.34, 0.245, 1.4625, 0.365, 1.585, 0.4875, 1.705, 0.61, 1.8275, 0.7325, 1.95, 0.8525, 2.07, 0.975, 2.1925, 1.0975, 0, 1.2175, 0.1225, 1.34, 0.245, 1.4625, 0.365, 1.585, 0.4875, 1.705, 0.61, 1.8275, 0.7325, 1.95, 0.8525, 2.07, 0.975, 2.1925, 1.0975, 0, 1.2175, 0.1225, 1.34, 0.245, 1.4625, 0.365, 1.585, 0.4875, 1.705, 0.61, 1.8275, 0.7325, 1.95, 0.8525, 2.07, 0.975, 2.1925, 1.0975],
  "SoftwareVersions": "syngo MR E11",
  "SpacingBetweenSlices": 2,
  "StationName": "MRC35049",
  "TotalReadoutTime": 0.0763001,
  "TxRefAmp": 249.769,
  "WipMemBlock": "31fc9fb0-c323-4bb8-ace5-cc1ae5bc2b74||Sequence: R016 ve11c/master r/e634e98; Dec 19 2017 11:11:25 by eja",
  "dcmmeta_affine": [
    [-2.0, 0.0, 0.0, 110.0888671875],
    [0.0, 1.7143346071243286, -1.0300761461257935, -67.09005737304688],
    [0.0, 1.0300761461257935, 1.7143346071243286, -106.01219177246094],
    [0.0, 0.0, 0.0, 1.0]
],
  "dcmmeta_reorient_transform": [
    [0.0, -1.0, 0.0, 109.0],
    [1.0, 0.0, 0.0, 0.0],
    [0.0, 0.0, 1.0, 0.0],
    [0.0, 0.0, 0.0, 1.0]
],
  "dcmmeta_shape": [110, 110, 57, 99],
  "dcmmeta_slice_dim": 2,
  "dcmmeta_version": 0.6,
  "global": {
    "const": {
      "AcquisitionMatrix": [110, 0, 0, 110],
      "AngioFlag": "N",
      "BitsAllocated": 16,
      "BitsStored": 16,
      "BodyPartExamined": "BRAIN",
      "CardiacNumberOfImages": 1,
      "Columns": 880,
      "EchoNumbers": 1,
      "EchoTime": 81.6,
      "EchoTrainLength": 83,
      "FlipAngle": 78.0,
      "HighBit": 15,
      "ImageOrientationPatient": [1.0, 0.0, 0.0, 0.0, 0.85716730460107, -0.5150380684211],
      "ImagePositionPatient": [-880.0888671875, -779.791236838, 402.84541961364],
      "ImageType": [
        "ORIGINAL",
        "PRIMARY",
        "DIFFUSION",
        "NONE",
        "MB",
        "ND",
        "MOSAIC"
],
      "ImagedNucleus": "1H",
      "ImagingFrequency": 123.259038,
      "InPlanePhaseEncodingDirection": "COL",
      "MRAcquisitionType": "2D",
      "MagneticFieldStrength": 3.0,
      "Manufacturer": "SIEMENS",
      "ManufacturerModelName": "Prisma_fit",
      "Modality": "MR",
      "NominalInterval": 0,
      "NumberOfAverages": 1.0,
      "NumberOfPhaseEncodingSteps": 83,
      "PercentPhaseFieldOfView": 100.0,
      "PercentSampling": 100.0,
      "PerformedProcedureStepStartTime": "090258.984000",
      "PhotometricInterpretation": "MONOCHROME2",
      "PixelBandwidth": 1685.0,
      "PixelRepresentation": 0,
      "PixelSpacing": [2.0, 2.0],
      "ProtocolName": "dMRI_dir98_PA_test_cmrr",
      "RepetitionTime": 2334.0,
      "Rows": 880,
      "SAR": 0.13373208331429,
      "SamplesPerPixel": 1,
      "ScanOptions": [
        "PFP",
        "EXT"
],
      "ScanningSequence": "EP",
      "SequenceVariant": [
        "SK",
        "SS"
],
      "SeriesDescription": "dMRI_dir98_PA_test_cmrr",
      "SeriesNumber": 11,
      "SeriesTime": "093048.444000",
      "SliceLocation": -56.316249891632,
      "SliceThickness": 2.0,
      "SmallestImagePixelValue": 0,
      "SoftwareVersions": "syngo MR E11",
      "SpacingBetweenSlices": 2.0000000263689,
      "SpecificCharacterSet": "ISO_IR 100",
      "StudyID": "1",
      "StudyTime": "090258.821000",
      "TransmitCoilName": "Body",
      "VariableFlipAngleFlag": "N",
      "WindowCenterWidthExplanation": "Algo1",
      "dBdt": 0.0},
    "slices": {}
  },
  "time": {
    "samples": {
      "AcquisitionNumber": [1, 2, 3, 4, 5, 6, 7, 8, 9, 10, 11, 12, 13, 14, 15, 16, 17, 18, 19, 20, 21, 22, 23, 24, 25, 26, 27, 28, 29, 30, 31, 32, 33, 34, 35, 36, 37, 38, 39, 40, 41, 42, 43, 44, 45, 46, 47, 48, 49, 50, 51, 52, 53, 54, 55, 56, 57, 58, 59, 60, 61, 62, 63, 64, 65, 66, 67, 68, 69, 70, 71, 72, 73, 74, 75, 76, 77, 78, 79, 80, 81, 82, 83, 84, 85, 86, 87, 88, 89, 90, 91, 92, 93, 94, 95, 96, 97, 98, 99],
      "AcquisitionTime": ["092947.545000", "092949.880000", "092952.215000", "092954.547500", "092956.882500", "092959.215000", "093001.550000", "093003.885000", "093006.217500", "093008.552500", "093010.885000", "093013.220000", "093015.555000", "093017.887500", "093020.222500", "093022.555000", "093024.890000", "093027.225000", "093029.557500", "093031.892500", "093034.225000", "093036.560000", "093038.895000", "093041.227500", "093043.562500", "093045.895000", "093048.230000", "093050.565000", "093052.897500", "093055.232500", "093057.565000", "093059.900000", "093102.235000", "093104.567500", "093106.902500", "093109.235000", "093111.570000", "093113.905000", "093116.237500", "093118.572500", "093120.905000", "093123.240000", "093125.575000", "093127.907500", "093130.242500", "093132.575000", "093134.910000", "093137.245000", "093139.577500", "093141.912500", "093144.245000", "093146.580000", "093148.915000", "093151.247500", "093153.582500", "093155.915000", "093158.250000", "093200.585000", "093202.917500", "093205.252500", "093207.585000", "093209.920000", "093212.255000", "093214.587500", "093216.922500", "093219.255000", "093221.590000", "093223.925000", "093226.257500", "093228.592500", "093230.925000", "093233.260000", "093235.595000", "093237.927500", "093240.262500", "093242.595000", "093244.930000", "093247.265000", "093249.597500", "093251.932500", "093254.265000", "093256.600000", "093258.935000", "093301.267500", "093303.602500", "093305.935000", "093308.270000", "093310.605000", "093312.937500", "093315.272500", "093317.605000", "093319.940000", "093322.275000", "093324.607500", "093326.942500", "093329.275000", "093331.610000", "093333.945000", "093336.277500"],
      "ContentTime": ["093048.447000", "093048.451000", "093048.454000", "093048.457000", "093048.460000", "093048.463000", "093048.466000", "093048.469000", "093048.477000", "093048.480000", "093048.483000", "093048.486000", "093048.489000", "093048.492000", "093048.495000", "093048.503000", "093048.506000", "093048.509000", "093048.512000", "093048.515000", "093048.518000", "093048.521000", "093048.524000", "093048.527000", "093048.530000", "093148.421000", "093148.425000", "093148.428000", "093148.431000", "093148.434000", "093148.437000", "093148.440000", "093148.443000", "093148.446000", "093148.449000", "093148.452000", "093148.462000", "093148.465000", "093148.468000", "093148.472000", "093148.475000", "093148.478000", "093148.481000", "093148.484000", "093148.487000", "093148.490000", "093148.493000", "093148.496000", "093148.499000", "093148.502000", "093148.514000", "093248.422000", "093248.435000", "093248.438000", "093248.441000", "093248.444000", "093248.447000", "093248.450000", "093248.453000", "093248.456000", "093248.460000", "093248.463000", "093248.466000", "093248.469000", "093248.472000", "093248.475000", "093248.478000", "093248.481000", "093248.485000", "093248.488000", "093248.491000", "093248.494000", "093248.497000", "093248.500000", "093248.503000", "093248.506000", "093248.509000", "093341.055000", "093341.059000", "093341.062000", "093341.065000", "093341.068000", "093341.071000", "093341.074000", "093341.077000", "093341.080000", "093341.084000", "093341.087000", "093341.090000", "093341.093000", "093341.096000", "093341.099000", "093341.102000", "093341.105000", "093341.109000", "093341.112000", "093341.115000", "093341.118000", "093341.121000"],
      "InstanceCreationTime": ["093048.447000", "093048.451000", "093048.454000", "093048.457000", "093048.460000", "093048.463000", "093048.466000", "093048.469000", "093048.477000", "093048.480000", "093048.483000", "093048.486000", "093048.489000", "093048.492000", "093048.495000", "093048.503000", "093048.506000", "093048.509000", "093048.512000", "093048.515000", "093048.518000", "093048.521000", "093048.524000", "093048.527000", "093048.530000", "093148.421000", "093148.425000", "093148.428000", "093148.431000", "093148.434000", "093148.437000", "093148.440000", "093148.443000", "093148.446000", "093148.449000", "093148.452000", "093148.462000", "093148.465000", "093148.468000", "093148.472000", "093148.475000", "093148.478000", "093148.481000", "093148.484000", "093148.487000", "093148.490000", "093148.493000", "093148.496000", "093148.499000", "093148.502000", "093148.514000", "093248.422000", "093248.435000", "093248.438000", "093248.441000", "093248.444000", "093248.447000", "093248.450000", "093248.453000", "093248.456000", "093248.460000", "093248.463000", "093248.466000", "093248.469000", "093248.472000", "093248.475000", "093248.478000", "093248.481000", "093248.485000", "093248.488000", "093248.491000", "093248.494000", "093248.497000", "093248.500000", "093248.503000", "093248.506000", "093248.509000", "093341.055000", "093341.059000", "093341.062000", "093341.065000", "093341.068000", "093341.071000", "093341.074000", "093341.077000", "093341.080000", "093341.084000", "093341.087000", "093341.090000", "093341.093000", "093341.096000", "093341.099000", "093341.102000", "093341.105000", "093341.109000", "093341.112000", "093341.115000", "093341.118000", "093341.121000"],
      "InstanceNumber": [1, 2, 3, 4, 5, 6, 7, 8, 9, 10, 11, 12, 13, 14, 15, 16, 17, 18, 19, 20, 21, 22, 23, 24, 25, 26, 27, 28, 29, 30, 31, 32, 33, 34, 35, 36, 37, 38, 39, 40, 41, 42, 43, 44, 45, 46, 47, 48, 49, 50, 51, 52, 53, 54, 55, 56, 57, 58, 59, 60, 61, 62, 63, 64, 65, 66, 67, 68, 69, 70, 71, 72, 73, 74, 75, 76, 77, 78, 79, 80, 81, 82, 83, 84, 85, 86, 87, 88, 89, 90, 91, 92, 93, 94, 95, 96, 97, 98, 99],
      "LargestImagePixelValue": [54276, 57387, 16090, 8959, 15519, 10027, 14379, 9289, 15941, 9224, 16024, 9382, 15478, 11036, 14855, 10603, 16028, 53352, 9854, 15395, 12311, 16031, 10348, 16439, 9590, 15864, 10306, 17265, 11205, 15711, 11441, 16725, 10194, 60639, 14854, 11444, 17100, 9686, 15883, 11318, 17089, 10448, 15159, 8833, 17231, 11118, 17097, 11210, 16709, 52850, 9119, 15748, 11504, 15123, 10783, 15940, 10340, 15069, 9639, 15829, 10948, 15118, 9866, 14790, 9878, 52282, 16681, 7524, 15515, 11543, 17195, 10219, 14774, 10661, 16875, 11215, 16136, 9197, 15334, 11684, 14976, 50731, 8834, 15884, 10629, 15219, 10784, 16442, 10166, 16702, 10889, 16742, 9706, 14859, 10491, 15028, 11582, 14701, 9703],
      "SequenceName": [
 "ep_b5#1",
 "ep_b5#1",
 "ep_b1490#2",
 "ep_b2990#3",
 "ep_b1495#4",
 "ep_b3005#5",
 "ep_b1505#6",
 "ep_b2985#7",
 "ep_b1495#8",
 "ep_b3005#9",
 "ep_b1490#10",
 "ep_b2995#11",
 "ep_b1495#12",
 "ep_b2990#13",
 "ep_b1500#14",
 "ep_b2985#15",
 "ep_b1500#16",
 "ep_b5#17",
 "ep_b3000#18",
 "ep_b1495#19",
 "ep_b3000#20",
 "ep_b1495#21",
 "ep_b2995#22",
 "ep_b1495#23",
 "ep_b3000#24",
 "ep_b1490#25",
 "ep_b2985#26",
 "ep_b1505#27",
 "ep_b2990#28",
 "ep_b1495#29",
 "ep_b3000#30",
 "ep_b1490#31",
 "ep_b3000#32",
 "ep_b5#33",
 "ep_b1505#34",
 "ep_b3000#35",
 "ep_b1490#36",
 "ep_b2985#37",
 "ep_b1495#38",
 "ep_b3000#39",
 "ep_b1500#40",
 "ep_b2995#41",
 "ep_b1505#42",
 "ep_b2990#43",
 "ep_b1495#44",
 "ep_b3000#45",
 "ep_b1495#46",
 "ep_b3000#47",
 "ep_b1490#48",
 "ep_b5#49",
 "ep_b3000#50",
 "ep_b1495#51",
 "ep_b2995#52",
 "ep_b1505#53",
 "ep_b2995#54",
 "ep_b1490#55",
 "ep_b2990#56",
 "ep_b1490#57",
 "ep_b3000#58",
 "ep_b1500#59",
 "ep_b3000#60",
 "ep_b1500#61",
 "ep_b2985#62",
 "ep_b1500#63",
 "ep_b2990#64",
 "ep_b5#65",
 "ep_b1505#66",
 "ep_b3000#67",
 "ep_b1495#68",
 "ep_b3000#69",
 "ep_b1505#70",
 "ep_b3005#71",
 "ep_b1500#72",
 "ep_b3005#73",
 "ep_b1495#74",
 "ep_b2990#75",
 "ep_b1495#76",
 "ep_b2995#77",
 "ep_b1500#78",
 "ep_b3000#79",
 "ep_b1490#80",
 "ep_b5#81",
 "ep_b2990#82",
 "ep_b1500#83",
 "ep_b2985#84",
 "ep_b1495#85",
 "ep_b2995#86",
 "ep_b1495#87",
 "ep_b2990#88",
 "ep_b1490#89",
 "ep_b2985#90",
 "ep_b1495#91",
 "ep_b2995#92",
 "ep_b1495#93",
 "ep_b3005#94",
 "ep_b1500#95",
 "ep_b2990#96",
 "ep_b1500#97",
 "ep_b3000#98"
],
      "TriggerTime": [13295.0, 15630.0, 17962.5, 20297.5, 22632.5, 24965.0, 27300.0, 29632.5, 31967.5, 34302.5, 36635.0, 38970.0, 41302.5, 43637.5, 45972.5, 48305.0, 50640.0, 52972.5, 55307.5, 57642.5, 59975.0, 62310.0, 64642.5, 66977.5, 69312.5, 71645.0, 73980.0, 76312.5, 78647.5, 80982.5, 83315.0, 85650.0, 87982.5, 90317.5, 92652.5, 94985.0, 97320.0, 99652.5, 101987.5, 104322.5, 106655.0, 108990.0, 111322.5, 113657.5, 115992.5, 118325.0, 120660.0, 122992.5, 125327.5, 127662.5, 129995.0, 132330.0, 134662.5, 136997.5, 139332.5, 141665.0, 144000.0, 146332.5, 148667.5, 151002.5, 153335.0, 155670.0, 158002.5, 160337.5, 162672.5, 165005.0, 167340.0, 169672.5, 172007.5, 174342.5, 176675.0, 179010.0, 181342.5, 183677.5, 186012.5, 188345.0, 190680.0, 193012.5, 195347.5, 197682.5, 200015.0, 202350.0, 204682.5, 207017.5, 209352.5, 211685.0, 214020.0, 216352.5, 218687.5, 221022.5, 223355.0, 225690.0, 228022.5, 230357.5, 232692.5, 235025.0, 237360.0, 239692.5, 242027.5],
      "WindowCenter": [7863.0, 7910.0, 2928.0, 1764.0, 2895.0, 1783.0, 2872.0, 1794.0, 2923.0, 1750.0, 2911.0, 1803.0, 2933.0, 1838.0, 2882.0, 1814.0, 2883.0, 7813.0, 1796.0, 2934.0, 1810.0, 2962.0, 1806.0, 2960.0, 1818.0, 2896.0, 1768.0, 2906.0, 1827.0, 2905.0, 1789.0, 2918.0, 1790.0, 7893.0, 2889.0, 1785.0, 2955.0, 1767.0, 2912.0, 1825.0, 2964.0, 1799.0, 2867.0, 1783.0, 2957.0, 1769.0, 2967.0, 1849.0, 2910.0, 7778.0, 1752.0, 2954.0, 1844.0, 2887.0, 1840.0, 2896.0, 1816.0, 2911.0, 1737.0, 2922.0, 1776.0, 2883.0, 1784.0, 2899.0, 1793.0, 7807.0, 2916.0, 1728.0, 2913.0, 1799.0, 2941.0, 1806.0, 2904.0, 1756.0, 2908.0, 1823.0, 2925.0, 1814.0, 2919.0, 1788.0, 2888.0, 7760.0, 1768.0, 2914.0, 1775.0, 2896.0, 1854.0, 2946.0, 1800.0, 2898.0, 1782.0, 2935.0, 1802.0, 2905.0, 1808.0, 2879.0, 1827.0, 2862.0, 1790.0],
      "WindowWidth": [17043.0, 17153.0, 6925.0, 4489.0, 6856.0, 4544.0, 6793.0, 4553.0, 6913.0, 4459.0, 6892.0, 4568.0, 6922.0, 4649.0, 6836.0, 4608.0, 6843.0, 16942.0, 4567.0, 6924.0, 4569.0, 6965.0, 4582.0, 6974.0, 4594.0, 6856.0, 4510.0, 6889.0, 4635.0, 6874.0, 4541.0, 6889.0, 4544.0, 17101.0, 6872.0, 4520.0, 6962.0, 4503.0, 6869.0, 4592.0, 6978.0, 4554.0, 6803.0, 4535.0, 6965.0, 4482.0, 6983.0, 4665.0, 6887.0, 16859.0, 4471.0, 6957.0, 4647.0, 6854.0, 4660.0, 6857.0, 4588.0, 6892.0, 4440.0, 6900.0, 4517.0, 6841.0, 4542.0, 6846.0, 4555.0, 16917.0, 6924.0, 4424.0, 6898.0, 4551.0, 6944.0, 4583.0, 6866.0, 4458.0, 6882.0, 4622.0, 6921.0, 4577.0, 6901.0, 4538.0, 6828.0, 16830.0, 4503.0, 6904.0, 4506.0, 6861.0, 4689.0, 6951.0, 4556.0, 6866.0, 4536.0, 6932.0, 4561.0, 6868.0, 4589.0, 6822.0, 4638.0, 6808.0, 4541.0]
    },
    "slices": {}
  }
}