{
  "AcquisitionMatrixPE": 110,
  "AcquisitionNumber": 1,
  "AcquisitionTime": "14:54:24.002500",
  "BandwidthPerPixelPhaseEncode": 12.987,
  "BaseResolution": 110,
  "BodyPartExamined": "BRAIN",
  "CoilCombinationMethod": "Sum of Squares",
  "ConsistencyInfo": "N4_VE11C_LATEST_20160120",
  "ConversionSoftware": "dcm2niix",
  "ConversionSoftwareVersion": "v1.0.20211006",
  "DerivedVendorReportedEchoSpacing": 0.000700001,
  "DeviceSerialNumber": "167006",
  "DiffusionScheme": "Monopolar",
  "DwellTime": 2.7e-06,
  "EchoTime": 0.0768,
  "EchoTrainLength": 83,
  "EffectiveEchoSpacing": 0.000700001,
  "FlipAngle": 78,
  "HeudiconvVersion": "0.11.3.post9+gc939bf8",
  "ImageComments": "Unaliased MB3/PE3/LB SENSE1+",
  "ImageOrientationPatientDICOM": [0.99863, 0.0245702, 0.0462099, 2.30935e-09, 0.882948, -0.469472],
  "ImageOrientationText": "Tra>Cor(-28.0)>Sag(3.0)",
  "ImageType": [
    "ORIGINAL",
    "PRIMARY",
    "DIFFUSION",
    "NONE",
    "MB",
    "ND",
    "MOSAIC"
],
  "ImagingFrequency": 123.259,
  "InPlanePhaseEncodingDirectionDICOM": "COL",
  "InstitutionAddress": "Chemin Queen-Mary 4565,Montreal,District,CA,H3W 1W5",
  "InstitutionName": "IUGM",
  "InstitutionalDepartmentName": "Department",
  "MRAcquisitionType": "2D",
  "MagneticFieldStrength": 3,
  "Manufacturer": "Siemens",
  "ManufacturersModelName": "Prisma_fit",
  "MatrixCoilMode": "SENSE",
  "Modality": "MR",
  "MultibandAccelerationFactor": 3,
  "PartialFourier": 0.75,
  "PatientPosition": "HFS",
  "PercentPhaseFOV": 100,
  "PercentSampling": 100,
  "PhaseEncodingDirection": "j",
  "PhaseEncodingSteps": 83,
  "PhaseResolution": 1,
  "PixelBandwidth": 1685,
  "ProcedureStepDescription": "anat^generic",
  "ProtocolName": "dMRI_dir106_PA_test_cmrr",
  "PulseSequenceDetails": "%CustomerSeq%\\cmrr_mbep2d_diff",
  "ReceiveCoilActiveElements": "HC1-7",
  "ReceiveCoilName": "HeadNeck_64",
  "ReconMatrixPE": 110,
  "RepetitionTime": 2.243,
  "SAR": 0.146764,
  "ScanOptions": "PFP\\EXT",
  "ScanningSequence": "EP",
  "SequenceName": "ep_b0",
  "SequenceVariant": "SK\\SS",
  "SeriesDescription": "dMRI_dir106_PA_test_cmrr",
  "SeriesNumber": 14,
  "ShimSetting": [600, -7234, -8837, 288, 20, -230, -30, 100],
  "SliceThickness": 2,
  "SliceTiming": [0, 1.17, 0.115, 1.285, 0.2325, 1.4025, 0.35, 1.52, 0.4675, 1.6375, 0.585, 1.755, 0.7, 1.87, 0.8175, 1.9875, 0.935, 2.105, 1.0525, 0, 1.17, 0.115, 1.285, 0.2325, 1.4025, 0.35, 1.52, 0.4675, 1.6375, 0.585, 1.755, 0.7, 1.87, 0.8175, 1.9875, 0.935, 2.105, 1.0525, 0, 1.17, 0.115, 1.285, 0.2325, 1.4025, 0.35, 1.52, 0.4675, 1.6375, 0.585, 1.755, 0.7, 1.87, 0.8175, 1.9875, 0.935, 2.105, 1.0525],
  "SoftwareVersions": "syngo MR E11",
  "SpacingBetweenSlices": 2,
  "StationName": "MRC35049",
  "TotalReadoutTime": 0.0763001,
  "TxRefAmp": 251.968,
  "WipMemBlock": "84228ff2-b7ee-49e2-a90c-eb4e89ed1e7b||Sequence: R017 ve11c/master r/75a17815+; Jun 28 2022 16:41:33 by eja",
  "dcmmeta_affine": [
    [-1.9972590208053589, 4.618705862213801e-09, 0.1046718955039978, 111.80644989013672],
    [-0.04914047196507454, 1.765895128250122, -0.9376563429832458, -63.209434509277344],
    [0.09241979569196701, 0.9389431476593018, 1.7634750604629517, -101.53624725341797],
    [0.0, 0.0, 0.0, 1.0]
],
  "dcmmeta_reorient_transform": [
    [0.0, -1.0, 0.0, 109.0],
    [1.0, 0.0, 0.0, 0.0],
    [0.0, 0.0, 1.0, 0.0],
    [0.0, 0.0, 0.0, 1.0]
],
  "dcmmeta_shape": [110, 110, 57, 107],
  "dcmmeta_slice_dim": 2,
  "dcmmeta_version": 0.6,
  "global": {
    "const": {
      "AcquisitionMatrix": [110, 0, 0, 110],
      "AngioFlag": "N",
      "BitsAllocated": 16,
      "BitsStored": 16,
      "BodyPartExamined": "BRAIN",
      "CardiacNumberOfImages": 1,
      "Columns": 880,
      "EchoNumbers": 1,
      "EchoTime": 76.8,
      "EchoTrainLength": 83,
      "FlipAngle": 78.0,
      "HighBit": 15,
      "ImageOrientationPatient": [0.9986295352476, 0.02457023680001, 0.04620989931566, 2.309353e-09, 0.88294759199037, -0.4694715644194],
      "ImagePositionPatient": [-880.75119643833, -828.06186777181, 326.72003640947],
      "ImageType": [
        "ORIGINAL",
        "PRIMARY",
        "DIFFUSION",
        "NONE",
        "MB",
        "ND",
        "MOSAIC"
],
      "ImagedNucleus": "1H",
      "ImagingFrequency": 123.259184,
      "InPlanePhaseEncodingDirection": "COL",
      "LargestImagePixelValue": 4095,
      "MRAcquisitionType": "2D",
      "MagneticFieldStrength": 3.0,
      "Manufacturer": "SIEMENS",
      "ManufacturerModelName": "Prisma_fit",
      "Modality": "MR",
      "NominalInterval": 0,
      "NumberOfAverages": 1.0,
      "NumberOfPhaseEncodingSteps": 83,
      "PercentPhaseFieldOfView": 100.0,
      "PercentSampling": 100.0,
      "PerformedProcedureStepStartTime": "143352.274000",
      "PhotometricInterpretation": "MONOCHROME2",
      "PixelBandwidth": 1685.0,
      "PixelRepresentation": 0,
      "PixelSpacing": [2.0, 2.0],
      "ProtocolName": "dMRI_dir106_PA_test_cmrr",
      "RepetitionTime": 2243.0,
      "RescaleIntercept": -4096.0,
      "RescaleSlope": 2.0,
      "RescaleType": "US",
      "Rows": 880,
      "SAR": 0.14676358903714,
      "SamplesPerPixel": 1,
      "ScanOptions": [
        "PFP",
        "EXT"
],
      "ScanningSequence": "EP",
      "SequenceVariant": [
        "SK",
        "SS"
],
      "SeriesDescription": "dMRI_dir106_PA_test_cmrr",
      "SeriesNumber": 14,
      "SeriesTime": "145510.936000",
      "SliceLocation": -54.042460289354,
      "SliceThickness": 2.0,
      "SmallestImagePixelValue": 0,
      "SoftwareVersions": "syngo MR E11",
      "SpacingBetweenSlices": 1.9999999899451,
      "SpecificCharacterSet": "ISO_IR 100",
      "StudyID": "1",
      "StudyTime": "143352.199000",
      "TransmitCoilName": "Body",
      "VariableFlipAngleFlag": "N",
      "WindowCenterWidthExplanation": "Algo1",
      "dBdt": 0.0},
    "slices": {}
  },
  "time": {
    "samples": {
      "AcquisitionNumber": [1, 2, 3, 4, 5, 6, 7, 8, 9, 10, 11, 12, 13, 14, 15, 16, 17, 18, 19, 20, 21, 22, 23, 24, 25, 26, 27, 28, 29, 30, 31, 32, 33, 34, 35, 36, 37, 38, 39, 40, 41, 42, 43, 44, 45, 46, 47, 48, 49, 50, 51, 52, 53, 54, 55, 56, 57, 58, 59, 60, 61, 62, 63, 64, 65, 66, 67, 68, 69, 70, 71, 72, 73, 74, 75, 76, 77, 78, 79, 80, 81, 82, 83, 84, 85, 86, 87, 88, 89, 90, 91, 92, 93, 94, 95, 96, 97, 98, 99, 100, 101, 102, 103, 104, 105, 106, 107],
      "AcquisitionTime": ["145424.002500", "145426.245000", "145428.487500", "145430.730000", "145432.972500", "145435.217500", "145437.460000", "145439.702500", "145441.945000", "145444.187500", "145446.432500", "145448.675000", "145450.917500", "145453.160000", "145455.402500", "145457.647500", "145459.890000", "145502.132500", "145504.375000", "145506.617500", "145508.862500", "145511.105000", "145513.347500", "145515.590000", "145517.832500", "145520.077500", "145522.320000", "145524.562500", "145526.805000", "145529.047500", "145531.292500", "145533.535000", "145535.777500", "145538.020000", "145540.262500", "145542.507500", "145544.750000", "145546.992500", "145549.235000", "145551.477500", "145553.722500", "145555.965000", "145558.207500", "145600.450000", "145602.692500", "145604.937500", "145607.180000", "145609.422500", "145611.665000", "145613.907500", "145616.152500", "145618.395000", "145620.637500", "145622.880000", "145625.122500", "145627.367500", "145629.610000", "145631.852500", "145634.095000", "145636.337500", "145638.582500", "145640.825000", "145643.067500", "145645.310000", "145647.552500", "145649.797500", "145652.040000", "145654.282500", "145656.525000", "145658.767500", "145701.012500", "145703.255000", "145705.497500", "145707.740000", "145709.982500", "145712.227500", "145714.470000", "145716.712500", "145718.955000", "145721.197500", "145723.442500", "145725.685000", "145727.927500", "145730.170000", "145732.412500", "145734.657500", "145736.900000", "145739.142500", "145741.385000", "145743.627500", "145745.872500", "145748.115000", "145750.357500", "145752.600000", "145754.842500", "145757.087500", "145759.330000", "145801.572500", "145803.815000", "145806.057500", "145808.302500", "145810.545000", "145812.787500", "145815.030000", "145817.272500", "145819.517500", "145821.760000"],
      "ContentTime": ["145510.939000", "145510.942000", "145510.946000", "145510.949000", "145510.952000", "145510.955000", "145510.959000", "145510.962000", "145510.965000", "145510.968000", "145510.972000", "145510.975000", "145510.978000", "145510.982000", "145510.985000", "145510.988000", "145510.992000", "145510.995000", "145510.998000", "145511.002000", "145610.490000", "145610.493000", "145610.496000", "145610.500000", "145610.503000", "145610.506000", "145610.509000", "145610.512000", "145610.515000", "145610.519000", "145610.522000", "145610.525000", "145610.528000", "145610.532000", "145610.535000", "145610.538000", "145610.541000", "145610.544000", "145610.547000", "145610.550000", "145610.554000", "145610.557000", "145610.560000", "145610.563000", "145610.566000", "145610.569000", "145610.573000", "145710.493000", "145710.497000", "145710.500000", "145710.504000", "145710.508000", "145710.512000", "145710.515000", "145710.519000", "145710.522000", "145710.526000", "145710.530000", "145710.533000", "145710.536000", "145710.540000", "145710.543000", "145710.546000", "145710.549000", "145710.552000", "145710.555000", "145710.559000", "145710.562000", "145710.565000", "145710.568000", "145710.571000", "145710.575000", "145710.578000", "145810.497000", "145810.501000", "145810.504000", "145810.507000", "145810.510000", "145810.513000", "145810.516000", "145810.520000", "145810.523000", "145810.526000", "145810.529000", "145810.532000", "145810.535000", "145810.538000", "145810.541000", "145810.545000", "145810.548000", "145810.551000", "145810.554000", "145810.557000", "145810.560000", "145810.564000", "145810.567000", "145810.586000", "145810.589000", "145810.592000", "145810.596000", "145826.730000", "145826.733000", "145826.736000", "145826.739000", "145826.743000", "145826.746000", "145826.750000"],
      "InstanceCreationTime": ["145510.939000", "145510.942000", "145510.946000", "145510.949000", "145510.952000", "145510.955000", "145510.959000", "145510.962000", "145510.965000", "145510.968000", "145510.972000", "145510.975000", "145510.978000", "145510.982000", "145510.985000", "145510.988000", "145510.992000", "145510.995000", "145510.998000", "145511.002000", "145610.490000", "145610.493000", "145610.496000", "145610.500000", "145610.503000", "145610.506000", "145610.509000", "145610.512000", "145610.515000", "145610.519000", "145610.522000", "145610.525000", "145610.528000", "145610.532000", "145610.535000", "145610.538000", "145610.541000", "145610.544000", "145610.547000", "145610.550000", "145610.554000", "145610.557000", "145610.560000", "145610.563000", "145610.566000", "145610.569000", "145610.573000", "145710.493000", "145710.497000", "145710.500000", "145710.504000", "145710.508000", "145710.512000", "145710.515000", "145710.519000", "145710.522000", "145710.526000", "145710.530000", "145710.533000", "145710.536000", "145710.540000", "145710.543000", "145710.546000", "145710.549000", "145710.552000", "145710.555000", "145710.559000", "145710.562000", "145710.565000", "145710.568000", "145710.571000", "145710.575000", "145710.578000", "145810.497000", "145810.501000", "145810.504000", "145810.507000", "145810.510000", "145810.513000", "145810.516000", "145810.520000", "145810.523000", "145810.526000", "145810.529000", "145810.532000", "145810.535000", "145810.538000", "145810.541000", "145810.545000", "145810.548000", "145810.551000", "145810.554000", "145810.557000", "145810.560000", "145810.564000", "145810.567000", "145810.586000", "145810.589000", "145810.592000", "145810.596000", "145826.730000", "145826.733000", "145826.736000", "145826.739000", "145826.743000", "145826.746000", "145826.750000"],
      "InstanceNumber": [1, 2, 3, 4, 5, 6, 7, 8, 9, 10, 11, 12, 13, 14, 15, 16, 17, 18, 19, 20, 21, 22, 23, 24, 25, 26, 27, 28, 29, 30, 31, 32, 33, 34, 35, 36, 37, 38, 39, 40, 41, 42, 43, 44, 45, 46, 47, 48, 49, 50, 51, 52, 53, 54, 55, 56, 57, 58, 59, 60, 61, 62, 63, 64, 65, 66, 67, 68, 69, 70, 71, 72, 73, 74, 75, 76, 77, 78, 79, 80, 81, 82, 83, 84, 85, 86, 87, 88, 89, 90, 91, 92, 93, 94, 95, 96, 97, 98, 99, 100, 101, 102, 103, 104, 105, 106, 107],
      "SequenceName": [
 "ep_b0",
 "ep_b0",
 "ep_b1000#2",
 "ep_b2000#3",
 "ep_b1000#4",
 "ep_b1000#5",
 "ep_b300#6",
 "ep_b2000#7",
 "ep_b2000#8",
 "ep_b2000#9",
 "ep_b1000#10",
 "ep_b300#11",
 "ep_b2000#12",
 "ep_b2000#13",
 "ep_b2000#14",
 "ep_b2000#15",
 "ep_b1000#16",
 "ep_b2000#17",
 "ep_b2000#18",
 "ep_b2000#19",
 "ep_b2000#20",
 "ep_b0",
 "ep_b1000#22",
 "ep_b2000#23",
 "ep_b1000#24",
 "ep_b1000#25",
 "ep_b2000#26",
 "ep_b2000#27",
 "ep_b2000#28",
 "ep_b2000#29",
 "ep_b300#30",
 "ep_b2000#31",
 "ep_b1000#32",
 "ep_b2000#33",
 "ep_b2000#34",
 "ep_b300#35",
 "ep_b2000#36",
 "ep_b2000#37",
 "ep_b1000#38",
 "ep_b2000#39",
 "ep_b2000#40",
 "ep_b0",
 "ep_b2000#42",
 "ep_b2000#43",
 "ep_b2000#44",
 "ep_b300#45",
 "ep_b1000#46",
 "ep_b2000#47",
 "ep_b2000#48",
 "ep_b1000#49",
 "ep_b2000#50",
 "ep_b1000#51",
 "ep_b1000#52",
 "ep_b2000#53",
 "ep_b300#54",
 "ep_b1000#55",
 "ep_b2000#56",
 "ep_b1000#57",
 "ep_b2000#58",
 "ep_b2000#59",
 "ep_b1000#60",
 "ep_b0",
 "ep_b1000#62",
 "ep_b2000#63",
 "ep_b2000#64",
 "ep_b2000#65",
 "ep_b2000#66",
 "ep_b300#67",
 "ep_b1000#68",
 "ep_b1000#69",
 "ep_b2000#70",
 "ep_b2000#71",
 "ep_b2000#72",
 "ep_b2000#73",
 "ep_b1000#74",
 "ep_b2000#75",
 "ep_b2000#76",
 "ep_b2000#77",
 "ep_b1000#78",
 "ep_b1000#79",
 "ep_b2000#80",
 "ep_b0",
 "ep_b1000#82",
 "ep_b2000#83",
 "ep_b2000#84",
 "ep_b1000#85",
 "ep_b1000#86",
 "ep_b2000#87",
 "ep_b1000#88",
 "ep_b2000#89",
 "ep_b2000#90",
 "ep_b2000#91",
 "ep_b1000#92",
 "ep_b2000#93",
 "ep_b2000#94",
 "ep_b2000#95",
 "ep_b300#96",
 "ep_b1000#97",
 "ep_b2000#98",
 "ep_b1000#99",
 "ep_b1000#100",
 "ep_b0",
 "ep_b2000#102",
 "ep_b2000#103",
 "ep_b1000#104",
 "ep_b2000#105",
 "ep_b2000#106"
],
      "TriggerTime": [12835.0, 15080.0, 17322.5, 19565.0, 21807.5, 24050.0, 26295.0, 28537.5, 30780.0, 33022.5, 35265.0, 37510.0, 39752.5, 41995.0, 44237.5, 46480.0, 48725.0, 50967.5, 53210.0, 55452.5, 57695.0, 59940.0, 62182.5, 64425.0, 66667.5, 68910.0, 71155.0, 73397.5, 75640.0, 77882.5, 80125.0, 82370.0, 84612.5, 86855.0, 89097.5, 91340.0, 93585.0, 95827.5, 98070.0, 100312.5, 102555.0, 104800.0, 107042.5, 109285.0, 111527.5, 113770.0, 116015.0, 118257.5, 120500.0, 122742.5, 124985.0, 127230.0, 129472.5, 131715.0, 133957.5, 136200.0, 138445.0, 140687.5, 142930.0, 145172.5, 147415.0, 149660.0, 151902.5, 154145.0, 156387.5, 158630.0, 160875.0, 163117.5, 165360.0, 167602.5, 169845.0, 172090.0, 174332.5, 176575.0, 178817.5, 181060.0, 183305.0, 185547.5, 187790.0, 190032.5, 192275.0, 194520.0, 196762.5, 199005.0, 201247.5, 203490.0, 205735.0, 207977.5, 210220.0, 212462.5, 214705.0, 216950.0, 219192.5, 221435.0, 223677.5, 225920.0, 228165.0, 230407.5, 232650.0, 234892.5, 237135.0, 239380.0, 241622.5, 243865.0, 246107.5, 248350.0, 250595.0],
      "WindowCenter": [4922.0, 4922.0, 4754.0, 4656.0, 4876.0, 5130.0, 4874.0, 4832.0, 5054.0, 5022.0, 5016.0, 4750.0, 4804.0, 4812.0, 5084.0, 4856.0, 5078.0, 4978.0, 4720.0, 5010.0, 4842.0, 4952.0, 5074.0, 4934.0, 5016.0, 5074.0, 5060.0, 4790.0, 4694.0, 4778.0, 5022.0, 4902.0, 4956.0, 5080.0, 4982.0, 4830.0, 5036.0, 4834.0, 5066.0, 4932.0, 4954.0, 4924.0, 5072.0, 4830.0, 4914.0, 4918.0, 4700.0, 4842.0, 4874.0, 4846.0, 4984.0, 5132.0, 4794.0, 4978.0, 4882.0, 4848.0, 5076.0, 4662.0, 4934.0, 4940.0, 5022.0, 5008.0, 4856.0, 5044.0, 4626.0, 5018.0, 4820.0, 5032.0, 4880.0, 5152.0, 4970.0, 4826.0, 4968.0, 4576.0, 4932.0, 4782.0, 4556.0, 5012.0, 4860.0, 5100.0, 4886.0, 4946.0, 5030.0, 4968.0, 5008.0, 4952.0, 5020.0, 5006.0, 5160.0, 4694.0, 4752.0, 5152.0, 4824.0, 4918.0, 4802.0, 4976.0, 4958.0, 4728.0, 4942.0, 5116.0, 4956.0, 4978.0, 4922.0, 5010.0, 5026.0, 4878.0, 4856.0],
      "WindowWidth": [18582.0, 18586.0, 18488.0, 18526.0, 18660.0, 18960.0, 18574.0, 18790.0, 19042.0, 18854.0, 19034.0, 18454.0, 18832.0, 18854.0, 19044.0, 18740.0, 18856.0, 18804.0, 18580.0, 19130.0, 18824.0, 18618.0, 19120.0, 18872.0, 18812.0, 18892.0, 19112.0, 18758.0, 18724.0, 18738.0, 18716.0, 18830.0, 18858.0, 19032.0, 18888.0, 18602.0, 19148.0, 18820.0, 18928.0, 18796.0, 18910.0, 18596.0, 19078.0, 18644.0, 19030.0, 18742.0, 18654.0, 18744.0, 18758.0, 18792.0, 19170.0, 19138.0, 18536.0, 18946.0, 18658.0, 18612.0, 19172.0, 18470.0, 18990.0, 18724.0, 18824.0, 18648.0, 18606.0, 19112.0, 18378.0, 19124.0, 18736.0, 18814.0, 18688.0, 19006.0, 18788.0, 18738.0, 18886.0, 18408.0, 18856.0, 18566.0, 18400.0, 19002.0, 18714.0, 18916.0, 18826.0, 18612.0, 18952.0, 19022.0, 19010.0, 18822.0, 18814.0, 19080.0, 19092.0, 18656.0, 18628.0, 19050.0, 18668.0, 19046.0, 18556.0, 19132.0, 18686.0, 18506.0, 18894.0, 19002.0, 18786.0, 18634.0, 18816.0, 19132.0, 18818.0, 18780.0, 18754.0]
    },
    "slices": {}
  }
}