{
  "AcquisitionMatrixPE": 110,
  "AcquisitionNumber": 1,
  "AcquisitionTime": "14:50:5.687500",
  "BandwidthPerPixelPhaseEncode": 12.987,
  "BaseResolution": 110,
  "BodyPartExamined": "BRAIN",
  "CoilCombinationMethod": "Sum of Squares",
  "ConsistencyInfo": "N4_VE11C_LATEST_20160120",
  "ConversionSoftware": "dcm2niix",
  "ConversionSoftwareVersion": "v1.0.20211006",
  "DerivedVendorReportedEchoSpacing": 0.000700001,
  "DeviceSerialNumber": "167006",
  "DiffusionScheme": "Monopolar",
  "DwellTime": 2.7e-06,
  "EchoTime": 0.0768,
  "EchoTrainLength": 83,
  "EffectiveEchoSpacing": 0.000700001,
  "FlipAngle": 78,
  "HeudiconvVersion": "0.11.3.post9+gc939bf8",
  "ImageComments": "Unaliased MB3/PE3/LB SENSE1+",
  "ImageOrientationPatientDICOM": [0.99863, 0.0245702, 0.0462099, 2.30935e-09, 0.882948, -0.469472],
  "ImageOrientationText": "Tra>Cor(-28.0)>Sag(3.0)",
  "ImageType": [
    "ORIGINAL",
    "PRIMARY",
    "DIFFUSION",
    "NONE",
    "MB",
    "ND",
    "MOSAIC"
],
  "ImagingFrequency": 123.259,
  "InPlanePhaseEncodingDirectionDICOM": "COL",
  "InstitutionAddress": "Chemin Queen-Mary 4565,Montreal,District,CA,H3W 1W5",
  "InstitutionName": "IUGM",
  "InstitutionalDepartmentName": "Department",
  "MRAcquisitionType": "2D",
  "MagneticFieldStrength": 3,
  "Manufacturer": "Siemens",
  "ManufacturersModelName": "Prisma_fit",
  "MatrixCoilMode": "SENSE",
  "Modality": "MR",
  "MultibandAccelerationFactor": 3,
  "PartialFourier": 0.75,
  "PatientPosition": "HFS",
  "PercentPhaseFOV": 100,
  "PercentSampling": 100,
  "PhaseEncodingDirection": "j-",
  "PhaseEncodingSteps": 83,
  "PhaseResolution": 1,
  "PixelBandwidth": 1685,
  "ProcedureStepDescription": "anat^generic",
  "ProtocolName": "dMRI_dir106_AP_test_cmrr",
  "PulseSequenceDetails": "%CustomerSeq%\\cmrr_mbep2d_diff",
  "ReceiveCoilActiveElements": "HC1-7",
  "ReceiveCoilName": "HeadNeck_64",
  "ReconMatrixPE": 110,
  "RepetitionTime": 2.243,
  "SAR": 0.146764,
  "ScanOptions": "PFP\\EXT",
  "ScanningSequence": "EP",
  "SequenceName": "ep_b0",
  "SequenceVariant": "SK\\SS",
  "SeriesDescription": "dMRI_dir106_AP_test_cmrr",
  "SeriesNumber": 8,
  "ShimSetting": [600, -7234, -8837, 288, 20, -230, -30, 100],
  "SliceThickness": 2,
  "SliceTiming": [0, 1.17, 0.1175, 1.2875, 0.235, 1.405, 0.35, 1.52, 0.4675, 1.6375, 0.585, 1.755, 0.7025, 1.8725, 0.82, 1.99, 0.935, 2.105, 1.0525, 0, 1.17, 0.1175, 1.2875, 0.235, 1.405, 0.35, 1.52, 0.4675, 1.6375, 0.585, 1.755, 0.7025, 1.8725, 0.82, 1.99, 0.935, 2.105, 1.0525, 0, 1.17, 0.1175, 1.2875, 0.235, 1.405, 0.35, 1.52, 0.4675, 1.6375, 0.585, 1.755, 0.7025, 1.8725, 0.82, 1.99, 0.935, 2.105, 1.0525],
  "SoftwareVersions": "syngo MR E11",
  "SpacingBetweenSlices": 2,
  "StationName": "MRC35049",
  "TotalReadoutTime": 0.0763001,
  "TxRefAmp": 251.968,
  "WipMemBlock": "a272c2d3-0703-4069-baea-89aa299e7003||Sequence: R017 ve11c/master r/75a17815+; Jun 28 2022 16:41:33 by eja",
  "dcmmeta_affine": [
    [-1.9972590208053589, 4.618705862213801e-09, 0.1046718955039978, 111.80644989013672],
    [-0.04914047196507454, 1.765895128250122, -0.9376563429832458, -63.209434509277344],
    [0.09241979569196701, 0.9389431476593018, 1.7634750604629517, -101.53624725341797],
    [0.0, 0.0, 0.0, 1.0]
],
  "dcmmeta_reorient_transform": [
    [0.0, -1.0, 0.0, 109.0],
    [1.0, 0.0, 0.0, 0.0],
    [0.0, 0.0, 1.0, 0.0],
    [0.0, 0.0, 0.0, 1.0]
],
  "dcmmeta_shape": [110, 110, 57, 107],
  "dcmmeta_slice_dim": 2,
  "dcmmeta_version": 0.6,
  "global": {
    "const": {
      "AcquisitionMatrix": [110, 0, 0, 110],
      "AngioFlag": "N",
      "BitsAllocated": 16,
      "BitsStored": 16,
      "BodyPartExamined": "BRAIN",
      "CardiacNumberOfImages": 1,
      "Columns": 880,
      "EchoNumbers": 1,
      "EchoTime": 76.8,
      "EchoTrainLength": 83,
      "FlipAngle": 78.0,
      "HighBit": 15,
      "ImageOrientationPatient": [0.9986295352476, 0.02457023680001, 0.04620989931566, 2.309353e-09, 0.88294759199037, -0.4694715644194],
      "ImagePositionPatient": [-880.75119643833, -828.06186777181, 326.72003640947],
      "ImageType": [
        "ORIGINAL",
        "PRIMARY",
        "DIFFUSION",
        "NONE",
        "MB",
        "ND",
        "MOSAIC"
],
      "ImagedNucleus": "1H",
      "ImagingFrequency": 123.259181,
      "InPlanePhaseEncodingDirection": "COL",
      "MRAcquisitionType": "2D",
      "MagneticFieldStrength": 3.0,
      "Manufacturer": "SIEMENS",
      "ManufacturerModelName": "Prisma_fit",
      "Modality": "MR",
      "NominalInterval": 0,
      "NumberOfAverages": 1.0,
      "NumberOfPhaseEncodingSteps": 83,
      "PercentPhaseFieldOfView": 100.0,
      "PercentSampling": 100.0,
      "PerformedProcedureStepStartTime": "143352.274000",
      "PhotometricInterpretation": "MONOCHROME2",
      "PixelBandwidth": 1685.0,
      "PixelRepresentation": 0,
      "PixelSpacing": [2.0, 2.0],
      "ProtocolName": "dMRI_dir106_AP_test_cmrr",
      "RepetitionTime": 2243.0,
      "Rows": 880,
      "SAR": 0.14676358903714,
      "SamplesPerPixel": 1,
      "ScanOptions": [
        "PFP",
        "EXT"
],
      "ScanningSequence": "EP",
      "SequenceVariant": [
        "SK",
        "SS"
],
      "SeriesDescription": "dMRI_dir106_AP_test_cmrr",
      "SeriesNumber": 8,
      "SeriesTime": "145055.802000",
      "SliceLocation": -54.042460289354,
      "SliceThickness": 2.0,
      "SmallestImagePixelValue": 0,
      "SoftwareVersions": "syngo MR E11",
      "SpacingBetweenSlices": 1.9999999899451,
      "SpecificCharacterSet": "ISO_IR 100",
      "StudyID": "1",
      "StudyTime": "143352.199000",
      "TransmitCoilName": "Body",
      "VariableFlipAngleFlag": "N",
      "WindowCenter": 2934.0,
      "WindowCenterWidthExplanation": "WINDOW1",
      "WindowWidth": 7768.0,
      "dBdt": 0.0},
    "slices": {}
  },
  "time": {
    "samples": {
      "AcquisitionNumber": [1, 2, 3, 4, 5, 6, 7, 8, 9, 10, 11, 12, 13, 14, 15, 16, 17, 18, 19, 20, 21, 22, 23, 24, 25, 26, 27, 28, 29, 30, 31, 32, 33, 34, 35, 36, 37, 38, 39, 40, 41, 42, 43, 44, 45, 46, 47, 48, 49, 50, 51, 52, 53, 54, 55, 56, 57, 58, 59, 60, 61, 62, 63, 64, 65, 66, 67, 68, 69, 70, 71, 72, 73, 74, 75, 76, 77, 78, 79, 80, 81, 82, 83, 84, 85, 86, 87, 88, 89, 90, 91, 92, 93, 94, 95, 96, 97, 98, 99, 100, 101, 102, 103, 104, 105, 106, 107],
      "AcquisitionTime": ["145005.687500", "145007.930000", "145010.172500", "145012.417500", "145014.660000", "145016.902500", "145019.145000", "145021.387500", "145023.632500", "145025.875000", "145028.117500", "145030.360000", "145032.602500", "145034.847500", "145037.090000", "145039.332500", "145041.575000", "145043.817500", "145046.062500", "145048.305000", "145050.547500", "145052.790000", "145055.032500", "145057.277500", "145059.520000", "145101.762500", "145104.005000", "145106.247500", "145108.492500", "145110.735000", "145112.977500", "145115.220000", "145117.462500", "145119.707500", "145121.950000", "145124.192500", "145126.435000", "145128.677500", "145130.922500", "145133.165000", "145135.407500", "145137.650000", "145139.892500", "145142.137500", "145144.380000", "145146.622500", "145148.865000", "145151.107500", "145153.352500", "145155.595000", "145157.837500", "145200.080000", "145202.322500", "145204.567500", "145206.810000", "145209.052500", "145211.295000", "145213.537500", "145215.782500", "145218.025000", "145220.267500", "145222.510000", "145224.752500", "145226.997500", "145229.240000", "145231.482500", "145233.725000", "145235.967500", "145238.212500", "145240.455000", "145242.697500", "145244.940000", "145247.182500", "145249.427500", "145251.670000", "145253.912500", "145256.155000", "145258.397500", "145300.642500", "145302.885000", "145305.127500", "145307.370000", "145309.612500", "145311.857500", "145314.100000", "145316.342500", "145318.585000", "145320.827500", "145323.072500", "145325.315000", "145327.557500", "145329.800000", "145332.042500", "145334.287500", "145336.530000", "145338.772500", "145341.015000", "145343.257500", "145345.502500", "145347.745000", "145349.987500", "145352.230000", "145354.472500", "145356.717500", "145358.960000", "145401.202500", "145403.445000"],
      "ContentTime": ["145055.806000", "145055.809000", "145055.812000", "145055.816000", "145055.819000", "145055.822000", "145055.825000", "145055.828000", "145055.831000", "145055.835000", "145055.838000", "145055.841000", "145055.844000", "145055.847000", "145055.850000", "145055.853000", "145055.857000", "145055.860000", "145055.863000", "145055.866000", "145055.869000", "145055.872000", "145155.762000", "145155.765000", "145155.769000", "145155.834000", "145155.837000", "145155.840000", "145155.843000", "145155.846000", "145155.849000", "145155.852000", "145155.856000", "145155.859000", "145155.862000", "145155.869000", "145155.876000", "145155.879000", "145155.882000", "145155.886000", "145155.889000", "145155.892000", "145155.901000", "145155.904000", "145155.907000", "145155.910000", "145155.913000", "145155.916000", "145155.919000", "145255.762000", "145255.766000", "145255.769000", "145255.772000", "145255.775000", "145255.779000", "145255.782000", "145255.786000", "145255.789000", "145255.792000", "145255.795000", "145255.798000", "145255.801000", "145255.804000", "145255.808000", "145255.811000", "145255.814000", "145255.817000", "145255.820000", "145255.823000", "145255.826000", "145255.829000", "145255.833000", "145255.836000", "145255.839000", "145255.842000", "145355.762000", "145355.766000", "145355.769000", "145355.772000", "145355.775000", "145355.778000", "145355.781000", "145355.792000", "145355.795000", "145355.798000", "145355.801000", "145355.804000", "145355.808000", "145355.811000", "145355.814000", "145355.817000", "145355.820000", "145355.823000", "145355.826000", "145355.829000", "145355.832000", "145355.836000", "145355.839000", "145355.842000", "145355.845000", "145355.848000", "145355.851000", "145407.872000", "145407.876000", "145407.879000", "145407.883000", "145407.886000"],
      "InstanceCreationTime": ["145055.806000", "145055.809000", "145055.812000", "145055.816000", "145055.819000", "145055.822000", "145055.825000", "145055.828000", "145055.831000", "145055.835000", "145055.838000", "145055.841000", "145055.844000", "145055.847000", "145055.850000", "145055.853000", "145055.857000", "145055.860000", "145055.863000", "145055.866000", "145055.869000", "145055.872000", "145155.762000", "145155.765000", "145155.769000", "145155.834000", "145155.837000", "145155.840000", "145155.843000", "145155.846000", "145155.849000", "145155.852000", "145155.856000", "145155.859000", "145155.862000", "145155.869000", "145155.876000", "145155.879000", "145155.882000", "145155.886000", "145155.889000", "145155.892000", "145155.901000", "145155.904000", "145155.907000", "145155.910000", "145155.913000", "145155.916000", "145155.919000", "145255.762000", "145255.766000", "145255.769000", "145255.772000", "145255.775000", "145255.779000", "145255.782000", "145255.786000", "145255.789000", "145255.792000", "145255.795000", "145255.798000", "145255.801000", "145255.804000", "145255.808000", "145255.811000", "145255.814000", "145255.817000", "145255.820000", "145255.823000", "145255.826000", "145255.829000", "145255.833000", "145255.836000", "145255.839000", "145255.842000", "145355.762000", "145355.766000", "145355.769000", "145355.772000", "145355.775000", "145355.778000", "145355.781000", "145355.792000", "145355.795000", "145355.798000", "145355.801000", "145355.804000", "145355.808000", "145355.811000", "145355.814000", "145355.817000", "145355.820000", "145355.823000", "145355.826000", "145355.829000", "145355.832000", "145355.836000", "145355.839000", "145355.842000", "145355.845000", "145355.848000", "145355.851000", "145407.872000", "145407.876000", "145407.879000", "145407.883000", "145407.886000"],
      "InstanceNumber": [1, 2, 3, 4, 5, 6, 7, 8, 9, 10, 11, 12, 13, 14, 15, 16, 17, 18, 19, 20, 21, 22, 23, 24, 25, 26, 27, 28, 29, 30, 31, 32, 33, 34, 35, 36, 37, 38, 39, 40, 41, 42, 43, 44, 45, 46, 47, 48, 49, 50, 51, 52, 53, 54, 55, 56, 57, 58, 59, 60, 61, 62, 63, 64, 65, 66, 67, 68, 69, 70, 71, 72, 73, 74, 75, 76, 77, 78, 79, 80, 81, 82, 83, 84, 85, 86, 87, 88, 89, 90, 91, 92, 93, 94, 95, 96, 97, 98, 99, 100, 101, 102, 103, 104, 105, 106, 107],
      "LargestImagePixelValue": [47662, 45907, 12213, 7493, 13804, 13975, 21821, 8793, 6422, 6023, 12951, 22065, 7926, 7027, 6504, 7385, 12311, 6408, 6109, 7567, 8815, 42687, 12955, 7166, 11674, 12323, 6800, 6854, 7379, 8359, 22449, 7111, 12687, 6608, 6328, 22991, 7069, 8928, 12424, 6084, 6982, 44512, 6363, 6925, 7516, 21947, 13181, 7563, 6584, 13810, 7006, 12728, 12283, 7024, 20710, 12486, 7313, 12636, 6865, 6368, 12858, 42028, 12704, 7213, 6509, 8081, 6897, 21792, 12991, 12919, 6334, 7802, 6073, 7121, 13174, 6308, 6350, 6544, 14170, 11734, 8156, 42235, 13279, 6516, 6905, 14291, 11418, 7426, 13415, 7659, 6549, 7086, 12093, 7873, 6326, 6356, 21507, 12362, 7410, 12074, 13162, 41763, 7517, 7501, 12624, 7168, 6582],
      "SequenceName": [
 "ep_b0",
 "ep_b0",
 "ep_b1000#2",
 "ep_b2000#3",
 "ep_b1000#4",
 "ep_b1000#5",
 "ep_b300#6",
 "ep_b2000#7",
 "ep_b2000#8",
 "ep_b2000#9",
 "ep_b1000#10",
 "ep_b300#11",
 "ep_b2000#12",
 "ep_b2000#13",
 "ep_b2000#14",
 "ep_b2000#15",
 "ep_b1000#16",
 "ep_b2000#17",
 "ep_b2000#18",
 "ep_b2000#19",
 "ep_b2000#20",
 "ep_b0",
 "ep_b1000#22",
 "ep_b2000#23",
 "ep_b1000#24",
 "ep_b1000#25",
 "ep_b2000#26",
 "ep_b2000#27",
 "ep_b2000#28",
 "ep_b2000#29",
 "ep_b300#30",
 "ep_b2000#31",
 "ep_b1000#32",
 "ep_b2000#33",
 "ep_b2000#34",
 "ep_b300#35",
 "ep_b2000#36",
 "ep_b2000#37",
 "ep_b1000#38",
 "ep_b2000#39",
 "ep_b2000#40",
 "ep_b0",
 "ep_b2000#42",
 "ep_b2000#43",
 "ep_b2000#44",
 "ep_b300#45",
 "ep_b1000#46",
 "ep_b2000#47",
 "ep_b2000#48",
 "ep_b1000#49",
 "ep_b2000#50",
 "ep_b1000#51",
 "ep_b1000#52",
 "ep_b2000#53",
 "ep_b300#54",
 "ep_b1000#55",
 "ep_b2000#56",
 "ep_b1000#57",
 "ep_b2000#58",
 "ep_b2000#59",
 "ep_b1000#60",
 "ep_b0",
 "ep_b1000#62",
 "ep_b2000#63",
 "ep_b2000#64",
 "ep_b2000#65",
 "ep_b2000#66",
 "ep_b300#67",
 "ep_b1000#68",
 "ep_b1000#69",
 "ep_b2000#70",
 "ep_b2000#71",
 "ep_b2000#72",
 "ep_b2000#73",
 "ep_b1000#74",
 "ep_b2000#75",
 "ep_b2000#76",
 "ep_b2000#77",
 "ep_b1000#78",
 "ep_b1000#79",
 "ep_b2000#80",
 "ep_b0",
 "ep_b1000#82",
 "ep_b2000#83",
 "ep_b2000#84",
 "ep_b1000#85",
 "ep_b1000#86",
 "ep_b2000#87",
 "ep_b1000#88",
 "ep_b2000#89",
 "ep_b2000#90",
 "ep_b2000#91",
 "ep_b1000#92",
 "ep_b2000#93",
 "ep_b2000#94",
 "ep_b2000#95",
 "ep_b300#96",
 "ep_b1000#97",
 "ep_b2000#98",
 "ep_b1000#99",
 "ep_b1000#100",
 "ep_b0",
 "ep_b2000#102",
 "ep_b2000#103",
 "ep_b1000#104",
 "ep_b2000#105",
 "ep_b2000#106"
],
      "TriggerTime": [12837.5, 15080.0, 17322.5, 19565.0, 21810.0, 24052.5, 26295.0, 28537.5, 30780.0, 33025.0, 35267.5, 37510.0, 39752.5, 41995.0, 44240.0, 46482.5, 48725.0, 50967.5, 53210.0, 55455.0, 57697.5, 59940.0, 62182.5, 64425.0, 66670.0, 68912.5, 71155.0, 73397.5, 75640.0, 77885.0, 80127.5, 82370.0, 84612.5, 86855.0, 89100.0, 91342.5, 93585.0, 95827.5, 98070.0, 100315.0, 102557.5, 104800.0, 107042.5, 109285.0, 111530.0, 113772.5, 116015.0, 118257.5, 120500.0, 122745.0, 124987.5, 127230.0, 129472.5, 131715.0, 133960.0, 136202.5, 138445.0, 140687.5, 142930.0, 145175.0, 147417.5, 149660.0, 151902.5, 154145.0, 156390.0, 158632.5, 160875.0, 163117.5, 165360.0, 167605.0, 169847.5, 172090.0, 174332.5, 176575.0, 178820.0, 181062.5, 183305.0, 185547.5, 187790.0, 190035.0, 192277.5, 194520.0, 196762.5, 199005.0, 201250.0, 203492.5, 205735.0, 207977.5, 210220.0, 212465.0, 214707.5, 216950.0, 219192.5, 221435.0, 223680.0, 225922.5, 228165.0, 230407.5, 232650.0, 234895.0, 237137.5, 239380.0, 241622.5, 243865.0, 246110.0, 248352.5, 250595.0]
    },
    "slices": {}
  }
}