{
  "AcquisitionMatrixPE": 110,
  "AcquisitionNumber": 1,
  "AcquisitionTime": "18:52:39.797500",
  "BandwidthPerPixelPhaseEncode": 12.987,
  "BaseResolution": 110,
  "BodyPartExamined": "BRAIN",
  "CoilCombinationMethod": "Sum of Squares",
  "ConsistencyInfo": "N4_VE11C_LATEST_20160120",
  "ConversionSoftware": "dcm2niix",
  "ConversionSoftwareVersion": "v1.0.20220505",
  "DerivedVendorReportedEchoSpacing": 0.000700001,
  "DeviceSerialNumber": "167006",
  "DiffusionScheme": "Monopolar",
  "DwellTime": 2.7e-06,
  "EchoTime": 0.0768,
  "EchoTrainLength": 83,
  "EffectiveEchoSpacing": 0.000700001,
  "FlipAngle": 78,
  "HeudiconvVersion": "0.5.3.post811+g6206e14",
  "ImageComments": "Unaliased MB3/PE3/LB SENSE1+",
  "ImageOrientationPatientDICOM": [1, 0, 0, 0, 0.959314, -0.282341],
  "ImageOrientationText": "Tra>Cor(-16.4)",
  "ImageType": [
    "ORIGINAL",
    "PRIMARY",
    "DIFFUSION",
    "NONE",
    "MB",
    "ND",
    "MOSAIC"
],
  "ImagingFrequency": 123.26,
  "InPlanePhaseEncodingDirectionDICOM": "COL",
  "InstitutionAddress": "Chemin Queen-Mary 4565,Montreal,District,CA,H3W 1W5",
  "InstitutionName": "IUGM",
  "InstitutionalDepartmentName": "Department",
  "MRAcquisitionType": "2D",
  "MagneticFieldStrength": 3,
  "Manufacturer": "Siemens",
  "ManufacturersModelName": "Prisma_fit",
  "MatrixCoilMode": "SENSE",
  "Modality": "MR",
  "MultibandAccelerationFactor": 3,
  "PartialFourier": 0.75,
  "PatientPosition": "HFS",
  "PercentPhaseFOV": 100,
  "PercentSampling": 100,
  "PhaseEncodingDirection": "j-",
  "PhaseEncodingSteps": 83,
  "PhaseResolution": 1,
  "PixelBandwidth": 1685,
  "ProcedureStepDescription": "anat^generic",
  "ProtocolName": "dMRI_dir106_AP_test_cmrr",
  "PulseSequenceDetails": "%CustomerSeq%\\cmrr_mbep2d_diff",
  "ReceiveCoilActiveElements": "HC1-6",
  "ReceiveCoilName": "HeadNeck_64",
  "ReconMatrixPE": 110,
  "RepetitionTime": 2.243,
  "SAR": 0.145051,
  "ScanOptions": "PFP\\EXT",
  "ScanningSequence": "EP",
  "SequenceName": "ep_b0",
  "SequenceVariant": "SK\\SS",
  "SeriesDescription": "dMRI_dir106_AP_test_cmrr",
  "SeriesNumber": 9,
  "ShimSetting": [602, -7264, -8833, 414, 35, -311, 3, 39],
  "SliceThickness": 2,
  "SliceTiming": [0, 1.17, 0.1175, 1.2875, 0.2325, 1.4025, 0.35, 1.52, 0.4675, 1.6375, 0.585, 1.755, 0.7025, 1.8725, 0.8175, 1.9875, 0.935, 2.105, 1.0525, 0, 1.17, 0.1175, 1.2875, 0.2325, 1.4025, 0.35, 1.52, 0.4675, 1.6375, 0.585, 1.755, 0.7025, 1.8725, 0.8175, 1.9875, 0.935, 2.105, 1.0525, 0, 1.17, 0.1175, 1.2875, 0.2325, 1.4025, 0.35, 1.52, 0.4675, 1.6375, 0.585, 1.755, 0.7025, 1.8725, 0.8175, 1.9875, 0.935, 2.105, 1.0525],
  "SoftwareVersions": "syngo MR E11",
  "SpacingBetweenSlices": 2,
  "StationName": "MRC35049",
  "TotalReadoutTime": 0.0763001,
  "TxRefAmp": 237.945,
  "WipMemBlock": "0f1bbcfd-51fd-437e-80c0-b973b4be35dc||Sequence: R017 ve11c/master r/75a17815+; Jun 28 2022 16:41:33 by eja",
  "dcmmeta_affine": [
    [-2.0, 0.0, 0.0, 109.49686431884766],
    [0.0, 1.9186279773712158, -0.5646829009056091, -76.01709747314453],
    [0.0, 0.5646829009056091, 1.9186279773712158, -52.232601165771484],
    [0.0, 0.0, 0.0, 1.0]
],
  "dcmmeta_reorient_transform": [
    [0.0, -1.0, 0.0, 109.0],
    [1.0, 0.0, 0.0, 0.0],
    [0.0, 0.0, 1.0, 0.0],
    [0.0, 0.0, 0.0, 1.0]
],
  "dcmmeta_shape": [110, 110, 57, 107],
  "dcmmeta_slice_dim": 2,
  "dcmmeta_version": 0.6,
  "global": {
    "const": {
      "AcquisitionMatrix": [110, 0, 0, 110],
      "AngioFlag": "N",
      "BitsAllocated": 16,
      "BitsStored": 16,
      "BodyPartExamined": "BRAIN",
      "CardiacNumberOfImages": 1,
      "Columns": 880,
      "EchoNumbers": 1,
      "EchoTime": 76.8,
      "EchoTrainLength": 83,
      "FlipAngle": 78.0,
      "HighBit": 15,
      "ImageOrientationPatient": [1.0, 0.0, 0.0, 0.0, 0.95931397909575, -0.282341441364],
      "ImagePositionPatient": [-879.49686384201, -871.78511347865, 226.72074328736],
      "ImageType": [
        "ORIGINAL",
        "PRIMARY",
        "DIFFUSION",
        "NONE",
        "MB",
        "ND",
        "MOSAIC"
],
      "ImagedNucleus": "1H",
      "ImagingFrequency": 123.260113,
      "InPlanePhaseEncodingDirection": "COL",
      "LargestImagePixelValue": 4095,
      "MRAcquisitionType": "2D",
      "MagneticFieldStrength": 3.0,
      "Manufacturer": "SIEMENS",
      "ManufacturerModelName": "Prisma_fit",
      "Modality": "MR",
      "NominalInterval": 0,
      "NumberOfAverages": 1.0,
      "NumberOfPhaseEncodingSteps": 83,
      "PercentPhaseFieldOfView": 100.0,
      "PercentSampling": 100.0,
      "PerformedProcedureStepStartTime": "183745.460000",
      "PhotometricInterpretation": "MONOCHROME2",
      "PixelBandwidth": 1685.0,
      "PixelRepresentation": 0,
      "PixelSpacing": [2.0, 2.0],
      "ProtocolName": "dMRI_dir106_AP_test_cmrr",
      "RepetitionTime": 2243.0,
      "RescaleIntercept": -4096.0,
      "RescaleSlope": 2.0,
      "RescaleType": "US",
      "Rows": 880,
      "SAR": 0.14505148598889,
      "SamplesPerPixel": 1,
      "ScanOptions": [
        "PFP",
        "EXT"
],
      "ScanningSequence": "EP",
      "SequenceVariant": [
        "SK",
        "SS"
],
      "SeriesDescription": "dMRI_dir106_AP_test_cmrr",
      "SeriesNumber": 9,
      "SeriesTime": "185340.501000",
      "SliceLocation": -28.644687112652,
      "SliceThickness": 2.0,
      "SmallestImagePixelValue": 0,
      "SoftwareVersions": "syngo MR E11",
      "SpacingBetweenSlices": 1.9999999629919,
      "SpecificCharacterSet": "ISO_IR 100",
      "StudyID": "1",
      "StudyTime": "183745.369000",
      "TransmitCoilName": "Body",
      "VariableFlipAngleFlag": "N",
      "WindowCenterWidthExplanation": "Algo1",
      "dBdt": 0.0},
    "slices": {}
  },
  "time": {
    "samples": {
      "AcquisitionNumber": [1, 2, 3, 4, 5, 6, 7, 8, 9, 10, 11, 12, 13, 14, 15, 16, 17, 18, 19, 20, 21, 22, 23, 24, 25, 26, 27, 28, 29, 30, 31, 32, 33, 34, 35, 36, 37, 38, 39, 40, 41, 42, 43, 44, 45, 46, 47, 48, 49, 50, 51, 52, 53, 54, 55, 56, 57, 58, 59, 60, 61, 62, 63, 64, 65, 66, 67, 68, 69, 70, 71, 72, 73, 74, 75, 76, 77, 78, 79, 80, 81, 82, 83, 84, 85, 86, 87, 88, 89, 90, 91, 92, 93, 94, 95, 96, 97, 98, 99, 100, 101, 102, 103, 104, 105, 106, 107],
      "AcquisitionTime": ["185239.797500", "185242.040000", "185244.282500", "185246.525000", "185248.770000", "185251.012500", "185253.255000", "185255.497500", "185257.740000", "185259.985000", "185302.227500", "185304.470000", "185306.712500", "185308.955000", "185311.200000", "185313.442500", "185315.685000", "185317.927500", "185320.170000", "185322.415000", "185324.657500", "185326.900000", "185329.142500", "185331.385000", "185333.630000", "185335.872500", "185338.115000", "185340.357500", "185342.600000", "185344.845000", "185347.087500", "185349.330000", "185351.572500", "185353.815000", "185356.060000", "185358.302500", "185400.545000", "185402.787500", "185405.030000", "185407.275000", "185409.517500", "185411.760000", "185414.002500", "185416.245000", "185418.490000", "185420.732500", "185422.975000", "185425.217500", "185427.460000", "185429.705000", "185431.947500", "185434.190000", "185436.432500", "185438.675000", "185440.920000", "185443.162500", "185445.405000", "185447.647500", "185449.890000", "185452.135000", "185454.377500", "185456.620000", "185458.862500", "185501.105000", "185503.350000", "185505.592500", "185507.835000", "185510.077500", "185512.320000", "185514.565000", "185516.807500", "185519.050000", "185521.292500", "185523.535000", "185525.780000", "185528.022500", "185530.265000", "185532.507500", "185534.750000", "185536.995000", "185539.237500", "185541.480000", "185543.722500", "185545.965000", "185548.210000", "185550.452500", "185552.695000", "185554.937500", "185557.180000", "185559.425000", "185601.667500", "185603.910000", "185606.152500", "185608.395000", "185610.640000", "185612.882500", "185615.125000", "185617.367500", "185619.610000", "185621.855000", "185624.097500", "185626.340000", "185628.582500", "185630.825000", "185633.070000", "185635.312500", "185637.555000"],
      "ContentTime": ["185340.504000", "185340.507000", "185340.510000", "185340.513000", "185340.516000", "185340.519000", "185340.523000", "185340.526000", "185340.529000", "185340.532000", "185340.535000", "185340.547000", "185340.550000", "185340.554000", "185340.557000", "185340.560000", "185340.563000", "185340.566000", "185340.569000", "185340.573000", "185340.576000", "185340.579000", "185340.582000", "185340.585000", "185340.588000", "185340.591000", "185440.505000", "185440.508000", "185440.511000", "185440.515000", "185440.518000", "185440.521000", "185440.524000", "185440.527000", "185440.530000", "185440.533000", "185440.537000", "185440.540000", "185440.543000", "185440.546000", "185440.549000", "185440.552000", "185440.555000", "185440.558000", "185440.561000", "185440.565000", "185440.568000", "185440.571000", "185440.574000", "185440.577000", "185440.581000", "185440.584000", "185440.587000", "185540.485000", "185540.488000", "185540.491000", "185540.495000", "185540.498000", "185540.501000", "185540.504000", "185540.507000", "185540.510000", "185540.513000", "185540.516000", "185540.519000", "185540.523000", "185540.526000", "185540.529000", "185540.532000", "185540.535000", "185540.538000", "185540.541000", "185540.545000", "185540.548000", "185540.551000", "185540.554000", "185540.557000", "185540.560000", "185540.563000", "185540.567000", "185640.500000", "185640.504000", "185640.508000", "185640.512000", "185640.522000", "185640.525000", "185640.529000", "185640.532000", "185640.535000", "185640.539000", "185640.542000", "185640.545000", "185640.549000", "185640.552000", "185640.556000", "185640.559000", "185640.562000", "185640.566000", "185640.570000", "185640.573000", "185640.577000", "185640.580000", "185640.584000", "185640.587000", "185640.592000", "185640.596000", "185640.600000"],
      "InstanceCreationTime": ["185340.504000", "185340.507000", "185340.510000", "185340.513000", "185340.516000", "185340.519000", "185340.523000", "185340.526000", "185340.529000", "185340.532000", "185340.535000", "185340.547000", "185340.550000", "185340.554000", "185340.557000", "185340.560000", "185340.563000", "185340.566000", "185340.569000", "185340.573000", "185340.576000", "185340.579000", "185340.582000", "185340.585000", "185340.588000", "185340.591000", "185440.505000", "185440.508000", "185440.511000", "185440.515000", "185440.518000", "185440.521000", "185440.524000", "185440.527000", "185440.530000", "185440.533000", "185440.537000", "185440.540000", "185440.543000", "185440.546000", "185440.549000", "185440.552000", "185440.555000", "185440.558000", "185440.561000", "185440.565000", "185440.568000", "185440.571000", "185440.574000", "185440.577000", "185440.581000", "185440.584000", "185440.587000", "185540.485000", "185540.488000", "185540.491000", "185540.495000", "185540.498000", "185540.501000", "185540.504000", "185540.507000", "185540.510000", "185540.513000", "185540.516000", "185540.519000", "185540.523000", "185540.526000", "185540.529000", "185540.532000", "185540.535000", "185540.538000", "185540.541000", "185540.545000", "185540.548000", "185540.551000", "185540.554000", "185540.557000", "185540.560000", "185540.563000", "185540.567000", "185640.500000", "185640.504000", "185640.508000", "185640.512000", "185640.522000", "185640.525000", "185640.529000", "185640.532000", "185640.535000", "185640.539000", "185640.542000", "185640.545000", "185640.549000", "185640.552000", "185640.556000", "185640.559000", "185640.562000", "185640.566000", "185640.570000", "185640.573000", "185640.577000", "185640.580000", "185640.584000", "185640.587000", "185640.592000", "185640.596000", "185640.600000"],
      "InstanceNumber": [1, 2, 3, 4, 5, 6, 7, 8, 9, 10, 11, 12, 13, 14, 15, 16, 17, 18, 19, 20, 21, 22, 23, 24, 25, 26, 27, 28, 29, 30, 31, 32, 33, 34, 35, 36, 37, 38, 39, 40, 41, 42, 43, 44, 45, 46, 47, 48, 49, 50, 51, 52, 53, 54, 55, 56, 57, 58, 59, 60, 61, 62, 63, 64, 65, 66, 67, 68, 69, 70, 71, 72, 73, 74, 75, 76, 77, 78, 79, 80, 81, 82, 83, 84, 85, 86, 87, 88, 89, 90, 91, 92, 93, 94, 95, 96, 97, 98, 99, 100, 101, 102, 103, 104, 105, 106, 107],
      "SequenceName": [
 "ep_b0",
 "ep_b0",
 "ep_b1000#2",
 "ep_b2000#3",
 "ep_b1000#4",
 "ep_b1000#5",
 "ep_b300#6",
 "ep_b2000#7",
 "ep_b2000#8",
 "ep_b2000#9",
 "ep_b1000#10",
 "ep_b300#11",
 "ep_b2000#12",
 "ep_b2000#13",
 "ep_b2000#14",
 "ep_b2000#15",
 "ep_b1000#16",
 "ep_b2000#17",
 "ep_b2000#18",
 "ep_b2000#19",
 "ep_b2000#20",
 "ep_b0",
 "ep_b1000#22",
 "ep_b2000#23",
 "ep_b1000#24",
 "ep_b1000#25",
 "ep_b2000#26",
 "ep_b2000#27",
 "ep_b2000#28",
 "ep_b2000#29",
 "ep_b300#30",
 "ep_b2000#31",
 "ep_b1000#32",
 "ep_b2000#33",
 "ep_b2000#34",
 "ep_b300#35",
 "ep_b2000#36",
 "ep_b2000#37",
 "ep_b1000#38",
 "ep_b2000#39",
 "ep_b2000#40",
 "ep_b0",
 "ep_b2000#42",
 "ep_b2000#43",
 "ep_b2000#44",
 "ep_b300#45",
 "ep_b1000#46",
 "ep_b2000#47",
 "ep_b2000#48",
 "ep_b1000#49",
 "ep_b2000#50",
 "ep_b1000#51",
 "ep_b1000#52",
 "ep_b2000#53",
 "ep_b300#54",
 "ep_b1000#55",
 "ep_b2000#56",
 "ep_b1000#57",
 "ep_b2000#58",
 "ep_b2000#59",
 "ep_b1000#60",
 "ep_b0",
 "ep_b1000#62",
 "ep_b2000#63",
 "ep_b2000#64",
 "ep_b2000#65",
 "ep_b2000#66",
 "ep_b300#67",
 "ep_b1000#68",
 "ep_b1000#69",
 "ep_b2000#70",
 "ep_b2000#71",
 "ep_b2000#72",
 "ep_b2000#73",
 "ep_b1000#74",
 "ep_b2000#75",
 "ep_b2000#76",
 "ep_b2000#77",
 "ep_b1000#78",
 "ep_b1000#79",
 "ep_b2000#80",
 "ep_b0",
 "ep_b1000#82",
 "ep_b2000#83",
 "ep_b2000#84",
 "ep_b1000#85",
 "ep_b1000#86",
 "ep_b2000#87",
 "ep_b1000#88",
 "ep_b2000#89",
 "ep_b2000#90",
 "ep_b2000#91",
 "ep_b1000#92",
 "ep_b2000#93",
 "ep_b2000#94",
 "ep_b2000#95",
 "ep_b300#96",
 "ep_b1000#97",
 "ep_b2000#98",
 "ep_b1000#99",
 "ep_b1000#100",
 "ep_b0",
 "ep_b2000#102",
 "ep_b2000#103",
 "ep_b1000#104",
 "ep_b2000#105",
 "ep_b2000#106"
],
      "TriggerTime": [12837.5, 15080.0, 17322.5, 19565.0, 21810.0, 24052.5, 26295.0, 28537.5, 30780.0, 33025.0, 35267.5, 37510.0, 39752.5, 41995.0, 44240.0, 46482.5, 48725.0, 50967.5, 53210.0, 55455.0, 57697.5, 59940.0, 62182.5, 64425.0, 66670.0, 68912.5, 71155.0, 73397.5, 75640.0, 77885.0, 80127.5, 82370.0, 84612.5, 86855.0, 89100.0, 91342.5, 93585.0, 95827.5, 98070.0, 100315.0, 102557.5, 104800.0, 107042.5, 109285.0, 111530.0, 113772.5, 116015.0, 118257.5, 120500.0, 122745.0, 124987.5, 127230.0, 129472.5, 131715.0, 133960.0, 136202.5, 138445.0, 140687.5, 142930.0, 145175.0, 147417.5, 149660.0, 151902.5, 154145.0, 156390.0, 158632.5, 160875.0, 163117.5, 165360.0, 167605.0, 169847.5, 172090.0, 174332.5, 176575.0, 178820.0, 181062.5, 183305.0, 185547.5, 187790.0, 190035.0, 192277.5, 194520.0, 196762.5, 199005.0, 201250.0, 203492.5, 205735.0, 207977.5, 210220.0, 212465.0, 214707.5, 216950.0, 219192.5, 221435.0, 223680.0, 225922.5, 228165.0, 230407.5, 232650.0, 234895.0, 237137.5, 239380.0, 241622.5, 243865.0, 246110.0, 248352.5, 250595.0],
      "WindowCenter": [4700.0, 4704.0, 4518.0, 4416.0, 4470.0, 4854.0, 4688.0, 4552.0, 4730.0, 4610.0, 4916.0, 4580.0, 5002.0, 5164.0, 4800.0, 4386.0, 4856.0, 4606.0, 4294.0, 4986.0, 4466.0, 4700.0, 5104.0, 4312.0, 4754.0, 4650.0, 4944.0, 4700.0, 5184.0, 4384.0, 4822.0, 4754.0, 4670.0, 4598.0, 4652.0, 4524.0, 5020.0, 4404.0, 5066.0, 4464.0, 5052.0, 4672.0, 4480.0, 4586.0, 5126.0, 4718.0, 4372.0, 5018.0, 4614.0, 4688.0, 5030.0, 5004.0, 4696.0, 4646.0, 4636.0, 4748.0, 4918.0, 4362.0, 5008.0, 4642.0, 4946.0, 4830.0, 4352.0, 5118.0, 4070.0, 5118.0, 4578.0, 4684.0, 4586.0, 5020.0, 4760.0, 4254.0, 4748.0, 4332.0, 4926.0, 4546.0, 4458.0, 4526.0, 4600.0, 4692.0, 4312.0, 4668.0, 4930.0, 4898.0, 5004.0, 4430.0, 4704.0, 5188.0, 5050.0, 4208.0, 4318.0, 5020.0, 4768.0, 5158.0, 4568.0, 4930.0, 4684.0, 4096.0, 4560.0, 4736.0, 4376.0, 4696.0, 4810.0, 5178.0, 4658.0, 4654.0, 4294.0],
      "WindowWidth": [18270.0, 18268.0, 18190.0, 18218.0, 18132.0, 18550.0, 18322.0, 18444.0, 18662.0, 18436.0, 18726.0, 18224.0, 18868.0, 19036.0, 18650.0, 18140.0, 18644.0, 18390.0, 18052.0, 18952.0, 18248.0, 18272.0, 18968.0, 18118.0, 18478.0, 18350.0, 18902.0, 18438.0, 19214.0, 18120.0, 18438.0, 18612.0, 18402.0, 18400.0, 18442.0, 18140.0, 18952.0, 18186.0, 18772.0, 18230.0, 18802.0, 18248.0, 18256.0, 18352.0, 19122.0, 18360.0, 18042.0, 18888.0, 18364.0, 18456.0, 18982.0, 18912.0, 18474.0, 18490.0, 18312.0, 18502.0, 18824.0, 18100.0, 18996.0, 18452.0, 18642.0, 18378.0, 17976.0, 19064.0, 17760.0, 19050.0, 18328.0, 18334.0, 18276.0, 18808.0, 18526.0, 18022.0, 18622.0, 18160.0, 18820.0, 18400.0, 18374.0, 18324.0, 18318.0, 18436.0, 18122.0, 18240.0, 18598.0, 18720.0, 18882.0, 18114.0, 18442.0, 19150.0, 18816.0, 17986.0, 18088.0, 18884.0, 18526.0, 19198.0, 18314.0, 18926.0, 18322.0, 17686.0, 18392.0, 18466.0, 18050.0, 18274.0, 18608.0, 19296.0, 18346.0, 18484.0, 18038.0]
    },
    "slices": {}
  }
}