{
  "AcquisitionMatrixPE": 110,
  "AcquisitionNumber": 1,
  "AcquisitionTime": "18:52:39.797500",
  "BandwidthPerPixelPhaseEncode": 12.987,
  "BaseResolution": 110,
  "BodyPartExamined": "BRAIN",
  "CoilCombinationMethod": "Sum of Squares",
  "ConsistencyInfo": "N4_VE11C_LATEST_20160120",
  "ConversionSoftware": "dcm2niix",
  "ConversionSoftwareVersion": "v1.0.20220505",
  "DerivedVendorReportedEchoSpacing": 0.000700001,
  "DeviceSerialNumber": "167006",
  "DiffusionScheme": "Monopolar",
  "DwellTime": 2.7e-06,
  "EchoTime": 0.0768,
  "EchoTrainLength": 83,
  "EffectiveEchoSpacing": 0.000700001,
  "FlipAngle": 78,
  "HeudiconvVersion": "0.5.3.post811+g6206e14",
  "ImageComments": "Unaliased MB3/PE3/LB SENSE1+",
  "ImageOrientationPatientDICOM": [1, 0, 0, 0, 0.959314, -0.282341],
  "ImageOrientationText": "Tra>Cor(-16.4)",
  "ImageType": [
    "ORIGINAL",
    "PRIMARY",
    "DIFFUSION",
    "NONE",
    "MB",
    "ND",
    "MOSAIC"
],
  "ImagingFrequency": 123.26,
  "InPlanePhaseEncodingDirectionDICOM": "COL",
  "InstitutionAddress": "Chemin Queen-Mary 4565,Montreal,District,CA,H3W 1W5",
  "InstitutionName": "IUGM",
  "InstitutionalDepartmentName": "Department",
  "MRAcquisitionType": "2D",
  "MagneticFieldStrength": 3,
  "Manufacturer": "Siemens",
  "ManufacturersModelName": "Prisma_fit",
  "MatrixCoilMode": "SENSE",
  "Modality": "MR",
  "MultibandAccelerationFactor": 3,
  "PartialFourier": 0.75,
  "PatientPosition": "HFS",
  "PercentPhaseFOV": 100,
  "PercentSampling": 100,
  "PhaseEncodingDirection": "j-",
  "PhaseEncodingSteps": 83,
  "PhaseResolution": 1,
  "PixelBandwidth": 1685,
  "ProcedureStepDescription": "anat^generic",
  "ProtocolName": "dMRI_dir106_AP_test_cmrr",
  "PulseSequenceDetails": "%CustomerSeq%\\cmrr_mbep2d_diff",
  "ReceiveCoilActiveElements": "HC1-6",
  "ReceiveCoilName": "HeadNeck_64",
  "ReconMatrixPE": 110,
  "RepetitionTime": 2.243,
  "SAR": 0.145051,
  "ScanOptions": "PFP\\EXT",
  "ScanningSequence": "EP",
  "SequenceName": "ep_b0",
  "SequenceVariant": "SK\\SS",
  "SeriesDescription": "dMRI_dir106_AP_test_cmrr",
  "SeriesNumber": 8,
  "ShimSetting": [602, -7264, -8833, 414, 35, -311, 3, 39],
  "SliceThickness": 2,
  "SliceTiming": [0, 1.17, 0.1175, 1.2875, 0.2325, 1.4025, 0.35, 1.52, 0.4675, 1.6375, 0.585, 1.755, 0.7025, 1.8725, 0.8175, 1.9875, 0.935, 2.105, 1.0525, 0, 1.17, 0.1175, 1.2875, 0.2325, 1.4025, 0.35, 1.52, 0.4675, 1.6375, 0.585, 1.755, 0.7025, 1.8725, 0.8175, 1.9875, 0.935, 2.105, 1.0525, 0, 1.17, 0.1175, 1.2875, 0.2325, 1.4025, 0.35, 1.52, 0.4675, 1.6375, 0.585, 1.755, 0.7025, 1.8725, 0.8175, 1.9875, 0.935, 2.105, 1.0525],
  "SoftwareVersions": "syngo MR E11",
  "SpacingBetweenSlices": 2,
  "StationName": "MRC35049",
  "TotalReadoutTime": 0.0763001,
  "TxRefAmp": 237.945,
  "WipMemBlock": "0f1bbcfd-51fd-437e-80c0-b973b4be35dc||Sequence: R017 ve11c/master r/75a17815+; Jun 28 2022 16:41:33 by eja",
  "dcmmeta_affine": [
    [-2.0, 0.0, 0.0, 109.49686431884766],
    [0.0, 1.9186279773712158, -0.5646829009056091, -76.01709747314453],
    [0.0, 0.5646829009056091, 1.9186279773712158, -52.232601165771484],
    [0.0, 0.0, 0.0, 1.0]
],
  "dcmmeta_reorient_transform": [
    [0.0, -1.0, 0.0, 109.0],
    [1.0, 0.0, 0.0, 0.0],
    [0.0, 0.0, 1.0, 0.0],
    [0.0, 0.0, 0.0, 1.0]
],
  "dcmmeta_shape": [110, 110, 57, 107],
  "dcmmeta_slice_dim": 2,
  "dcmmeta_version": 0.6,
  "global": {
    "const": {
      "AcquisitionMatrix": [110, 0, 0, 110],
      "AngioFlag": "N",
      "BitsAllocated": 16,
      "BitsStored": 16,
      "BodyPartExamined": "BRAIN",
      "CardiacNumberOfImages": 1,
      "Columns": 880,
      "EchoNumbers": 1,
      "EchoTime": 76.8,
      "EchoTrainLength": 83,
      "FlipAngle": 78.0,
      "HighBit": 15,
      "ImageOrientationPatient": [1.0, 0.0, 0.0, 0.0, 0.95931397909575, -0.282341441364],
      "ImagePositionPatient": [-879.49686384201, -871.78511347865, 226.72074328736],
      "ImageType": [
        "ORIGINAL",
        "PRIMARY",
        "DIFFUSION",
        "NONE",
        "MB",
        "ND",
        "MOSAIC"
],
      "ImagedNucleus": "1H",
      "ImagingFrequency": 123.260113,
      "InPlanePhaseEncodingDirection": "COL",
      "MRAcquisitionType": "2D",
      "MagneticFieldStrength": 3.0,
      "Manufacturer": "SIEMENS",
      "ManufacturerModelName": "Prisma_fit",
      "Modality": "MR",
      "NominalInterval": 0,
      "NumberOfAverages": 1.0,
      "NumberOfPhaseEncodingSteps": 83,
      "PercentPhaseFieldOfView": 100.0,
      "PercentSampling": 100.0,
      "PerformedProcedureStepStartTime": "183745.460000",
      "PhotometricInterpretation": "MONOCHROME2",
      "PixelBandwidth": 1685.0,
      "PixelRepresentation": 0,
      "PixelSpacing": [2.0, 2.0],
      "ProtocolName": "dMRI_dir106_AP_test_cmrr",
      "RepetitionTime": 2243.0,
      "Rows": 880,
      "SAR": 0.14505148598889,
      "SamplesPerPixel": 1,
      "ScanOptions": [
        "PFP",
        "EXT"
],
      "ScanningSequence": "EP",
      "SequenceVariant": [
        "SK",
        "SS"
],
      "SeriesDescription": "dMRI_dir106_AP_test_cmrr",
      "SeriesNumber": 8,
      "SeriesTime": "185340.397000",
      "SliceLocation": -28.644687112652,
      "SliceThickness": 2.0,
      "SmallestImagePixelValue": 0,
      "SoftwareVersions": "syngo MR E11",
      "SpacingBetweenSlices": 1.9999999629919,
      "SpecificCharacterSet": "ISO_IR 100",
      "StudyID": "1",
      "StudyTime": "183745.369000",
      "TransmitCoilName": "Body",
      "VariableFlipAngleFlag": "N",
      "WindowCenterWidthExplanation": "Algo1",
      "dBdt": 0.0},
    "slices": {}
  },
  "time": {
    "samples": {
      "AcquisitionNumber": [1, 2, 3, 4, 5, 6, 7, 8, 9, 10, 11, 12, 13, 14, 15, 16, 17, 18, 19, 20, 21, 22, 23, 24, 25, 26, 27, 28, 29, 30, 31, 32, 33, 34, 35, 36, 37, 38, 39, 40, 41, 42, 43, 44, 45, 46, 47, 48, 49, 50, 51, 52, 53, 54, 55, 56, 57, 58, 59, 60, 61, 62, 63, 64, 65, 66, 67, 68, 69, 70, 71, 72, 73, 74, 75, 76, 77, 78, 79, 80, 81, 82, 83, 84, 85, 86, 87, 88, 89, 90, 91, 92, 93, 94, 95, 96, 97, 98, 99, 100, 101, 102, 103, 104, 105, 106, 107],
      "AcquisitionTime": ["185239.797500", "185242.040000", "185244.282500", "185246.525000", "185248.770000", "185251.012500", "185253.255000", "185255.497500", "185257.740000", "185259.985000", "185302.227500", "185304.470000", "185306.712500", "185308.955000", "185311.200000", "185313.442500", "185315.685000", "185317.927500", "185320.170000", "185322.415000", "185324.657500", "185326.900000", "185329.142500", "185331.385000", "185333.630000", "185335.872500", "185338.115000", "185340.357500", "185342.600000", "185344.845000", "185347.087500", "185349.330000", "185351.572500", "185353.815000", "185356.060000", "185358.302500", "185400.545000", "185402.787500", "185405.030000", "185407.275000", "185409.517500", "185411.760000", "185414.002500", "185416.245000", "185418.490000", "185420.732500", "185422.975000", "185425.217500", "185427.460000", "185429.705000", "185431.947500", "185434.190000", "185436.432500", "185438.675000", "185440.920000", "185443.162500", "185445.405000", "185447.647500", "185449.890000", "185452.135000", "185454.377500", "185456.620000", "185458.862500", "185501.105000", "185503.350000", "185505.592500", "185507.835000", "185510.077500", "185512.320000", "185514.565000", "185516.807500", "185519.050000", "185521.292500", "185523.535000", "185525.780000", "185528.022500", "185530.265000", "185532.507500", "185534.750000", "185536.995000", "185539.237500", "185541.480000", "185543.722500", "185545.965000", "185548.210000", "185550.452500", "185552.695000", "185554.937500", "185557.180000", "185559.425000", "185601.667500", "185603.910000", "185606.152500", "185608.395000", "185610.640000", "185612.882500", "185615.125000", "185617.367500", "185619.610000", "185621.855000", "185624.097500", "185626.340000", "185628.582500", "185630.825000", "185633.070000", "185635.312500", "185637.555000"],
      "ContentTime": ["185340.400000", "185340.403000", "185340.407000", "185340.410000", "185340.413000", "185340.416000", "185340.419000", "185340.422000", "185340.425000", "185340.428000", "185340.432000", "185340.435000", "185340.438000", "185340.441000", "185340.444000", "185340.447000", "185340.450000", "185340.453000", "185340.456000", "185340.459000", "185340.462000", "185340.465000", "185340.468000", "185340.471000", "185340.474000", "185340.477000", "185440.368000", "185440.371000", "185440.374000", "185440.377000", "185440.380000", "185440.384000", "185440.387000", "185440.390000", "185440.393000", "185440.396000", "185440.399000", "185440.402000", "185440.405000", "185440.408000", "185440.412000", "185440.414000", "185440.418000", "185440.421000", "185440.424000", "185440.427000", "185440.430000", "185440.433000", "185440.436000", "185440.439000", "185440.442000", "185440.445000", "185440.448000", "185540.368000", "185540.371000", "185540.374000", "185540.377000", "185540.380000", "185540.384000", "185540.387000", "185540.390000", "185540.393000", "185540.396000", "185540.399000", "185540.402000", "185540.405000", "185540.408000", "185540.411000", "185540.414000", "185540.417000", "185540.421000", "185540.424000", "185540.427000", "185540.430000", "185540.433000", "185540.436000", "185540.439000", "185540.442000", "185540.445000", "185540.448000", "185640.368000", "185640.372000", "185640.375000", "185640.384000", "185640.387000", "185640.391000", "185640.394000", "185640.397000", "185640.400000", "185640.403000", "185640.406000", "185640.409000", "185640.413000", "185640.416000", "185640.419000", "185640.422000", "185640.425000", "185640.429000", "185640.432000", "185640.435000", "185640.438000", "185640.441000", "185640.444000", "185640.448000", "185640.451000", "185640.454000", "185640.458000"],
      "InstanceCreationTime": ["185340.400000", "185340.403000", "185340.407000", "185340.410000", "185340.413000", "185340.416000", "185340.419000", "185340.422000", "185340.425000", "185340.428000", "185340.432000", "185340.435000", "185340.438000", "185340.441000", "185340.444000", "185340.447000", "185340.450000", "185340.453000", "185340.456000", "185340.459000", "185340.462000", "185340.465000", "185340.468000", "185340.471000", "185340.474000", "185340.477000", "185440.368000", "185440.371000", "185440.374000", "185440.377000", "185440.380000", "185440.384000", "185440.387000", "185440.390000", "185440.393000", "185440.396000", "185440.399000", "185440.402000", "185440.405000", "185440.408000", "185440.412000", "185440.414000", "185440.418000", "185440.421000", "185440.424000", "185440.427000", "185440.430000", "185440.433000", "185440.436000", "185440.439000", "185440.442000", "185440.445000", "185440.448000", "185540.368000", "185540.371000", "185540.374000", "185540.377000", "185540.380000", "185540.384000", "185540.387000", "185540.390000", "185540.393000", "185540.396000", "185540.399000", "185540.402000", "185540.405000", "185540.408000", "185540.411000", "185540.414000", "185540.417000", "185540.421000", "185540.424000", "185540.427000", "185540.430000", "185540.433000", "185540.436000", "185540.439000", "185540.442000", "185540.445000", "185540.448000", "185640.368000", "185640.372000", "185640.375000", "185640.384000", "185640.387000", "185640.391000", "185640.394000", "185640.397000", "185640.400000", "185640.403000", "185640.406000", "185640.409000", "185640.413000", "185640.416000", "185640.419000", "185640.422000", "185640.425000", "185640.429000", "185640.432000", "185640.435000", "185640.438000", "185640.441000", "185640.444000", "185640.448000", "185640.451000", "185640.454000", "185640.458000"],
      "InstanceNumber": [1, 2, 3, 4, 5, 6, 7, 8, 9, 10, 11, 12, 13, 14, 15, 16, 17, 18, 19, 20, 21, 22, 23, 24, 25, 26, 27, 28, 29, 30, 31, 32, 33, 34, 35, 36, 37, 38, 39, 40, 41, 42, 43, 44, 45, 46, 47, 48, 49, 50, 51, 52, 53, 54, 55, 56, 57, 58, 59, 60, 61, 62, 63, 64, 65, 66, 67, 68, 69, 70, 71, 72, 73, 74, 75, 76, 77, 78, 79, 80, 81, 82, 83, 84, 85, 86, 87, 88, 89, 90, 91, 92, 93, 94, 95, 96, 97, 98, 99, 100, 101, 102, 103, 104, 105, 106, 107],
      "LargestImagePixelValue": [51210, 51699, 12840, 7258, 12292, 12706, 20858, 7722, 6747, 6380, 13197, 20912, 7233, 6889, 6247, 6724, 12051, 6339, 6822, 6377, 7652, 46616, 12382, 8200, 13058, 11931, 6491, 6745, 6951, 7146, 21661, 6717, 13426, 6525, 6298, 23795, 6999, 7247, 12234, 6899, 6647, 58321, 7976, 6663, 6766, 21740, 13794, 7431, 6654, 13177, 6502, 13173, 12630, 7375, 20824, 12448, 6501, 13863, 7484, 6539, 11910, 50219, 12473, 6380, 7075, 6373, 7908, 21918, 12029, 11657, 6610, 7707, 7066, 7358, 13474, 6515, 7797, 6902, 13133, 12567, 7372, 48161, 12413, 7224, 6335, 13030, 12914, 6372, 11964, 8220, 7635, 6539, 13093, 6543, 6555, 6705, 21279, 13072, 6687, 12301, 12694, 46599, 6885, 6479, 11427, 6766, 8197],
      "SequenceName": [
 "ep_b0",
 "ep_b0",
 "ep_b1000#2",
 "ep_b2000#3",
 "ep_b1000#4",
 "ep_b1000#5",
 "ep_b300#6",
 "ep_b2000#7",
 "ep_b2000#8",
 "ep_b2000#9",
 "ep_b1000#10",
 "ep_b300#11",
 "ep_b2000#12",
 "ep_b2000#13",
 "ep_b2000#14",
 "ep_b2000#15",
 "ep_b1000#16",
 "ep_b2000#17",
 "ep_b2000#18",
 "ep_b2000#19",
 "ep_b2000#20",
 "ep_b0",
 "ep_b1000#22",
 "ep_b2000#23",
 "ep_b1000#24",
 "ep_b1000#25",
 "ep_b2000#26",
 "ep_b2000#27",
 "ep_b2000#28",
 "ep_b2000#29",
 "ep_b300#30",
 "ep_b2000#31",
 "ep_b1000#32",
 "ep_b2000#33",
 "ep_b2000#34",
 "ep_b300#35",
 "ep_b2000#36",
 "ep_b2000#37",
 "ep_b1000#38",
 "ep_b2000#39",
 "ep_b2000#40",
 "ep_b0",
 "ep_b2000#42",
 "ep_b2000#43",
 "ep_b2000#44",
 "ep_b300#45",
 "ep_b1000#46",
 "ep_b2000#47",
 "ep_b2000#48",
 "ep_b1000#49",
 "ep_b2000#50",
 "ep_b1000#51",
 "ep_b1000#52",
 "ep_b2000#53",
 "ep_b300#54",
 "ep_b1000#55",
 "ep_b2000#56",
 "ep_b1000#57",
 "ep_b2000#58",
 "ep_b2000#59",
 "ep_b1000#60",
 "ep_b0",
 "ep_b1000#62",
 "ep_b2000#63",
 "ep_b2000#64",
 "ep_b2000#65",
 "ep_b2000#66",
 "ep_b300#67",
 "ep_b1000#68",
 "ep_b1000#69",
 "ep_b2000#70",
 "ep_b2000#71",
 "ep_b2000#72",
 "ep_b2000#73",
 "ep_b1000#74",
 "ep_b2000#75",
 "ep_b2000#76",
 "ep_b2000#77",
 "ep_b1000#78",
 "ep_b1000#79",
 "ep_b2000#80",
 "ep_b0",
 "ep_b1000#82",
 "ep_b2000#83",
 "ep_b2000#84",
 "ep_b1000#85",
 "ep_b1000#86",
 "ep_b2000#87",
 "ep_b1000#88",
 "ep_b2000#89",
 "ep_b2000#90",
 "ep_b2000#91",
 "ep_b1000#92",
 "ep_b2000#93",
 "ep_b2000#94",
 "ep_b2000#95",
 "ep_b300#96",
 "ep_b1000#97",
 "ep_b2000#98",
 "ep_b1000#99",
 "ep_b1000#100",
 "ep_b0",
 "ep_b2000#102",
 "ep_b2000#103",
 "ep_b1000#104",
 "ep_b2000#105",
 "ep_b2000#106"
],
      "TriggerTime": [12837.5, 15080.0, 17322.5, 19565.0, 21810.0, 24052.5, 26295.0, 28537.5, 30780.0, 33025.0, 35267.5, 37510.0, 39752.5, 41995.0, 44240.0, 46482.5, 48725.0, 50967.5, 53210.0, 55455.0, 57697.5, 59940.0, 62182.5, 64425.0, 66670.0, 68912.5, 71155.0, 73397.5, 75640.0, 77885.0, 80127.5, 82370.0, 84612.5, 86855.0, 89100.0, 91342.5, 93585.0, 95827.5, 98070.0, 100315.0, 102557.5, 104800.0, 107042.5, 109285.0, 111530.0, 113772.5, 116015.0, 118257.5, 120500.0, 122745.0, 124987.5, 127230.0, 129472.5, 131715.0, 133960.0, 136202.5, 138445.0, 140687.5, 142930.0, 145175.0, 147417.5, 149660.0, 151902.5, 154145.0, 156390.0, 158632.5, 160875.0, 163117.5, 165360.0, 167605.0, 169847.5, 172090.0, 174332.5, 176575.0, 178820.0, 181062.5, 183305.0, 185547.5, 187790.0, 190035.0, 192277.5, 194520.0, 196762.5, 199005.0, 201250.0, 203492.5, 205735.0, 207977.5, 210220.0, 212465.0, 214707.5, 216950.0, 219192.5, 221435.0, 223680.0, 225922.5, 228165.0, 230407.5, 232650.0, 234895.0, 237137.5, 239380.0, 241622.5, 243865.0, 246110.0, 248352.5, 250595.0],
      "WindowCenter": [7101.0, 7096.0, 3315.0, 2148.0, 3281.0, 3277.0, 5123.0, 2135.0, 2116.0, 2102.0, 3320.0, 5104.0, 2110.0, 2094.0, 2093.0, 2113.0, 3276.0, 2110.0, 2145.0, 2116.0, 2120.0, 7000.0, 3290.0, 2150.0, 3310.0, 3268.0, 2098.0, 2114.0, 2116.0, 2096.0, 5146.0, 2103.0, 3284.0, 2098.0, 2101.0, 5156.0, 2117.0, 2111.0, 3259.0, 2130.0, 2094.0, 7047.0, 2154.0, 2098.0, 2107.0, 5100.0, 3309.0, 2092.0, 2125.0, 3284.0, 2085.0, 3295.0, 3302.0, 2142.0, 5095.0, 3256.0, 2112.0, 3325.0, 2106.0, 2129.0, 3272.0, 6987.0, 3280.0, 2074.0, 2144.0, 2068.0, 2124.0, 5102.0, 3266.0, 3242.0, 2116.0, 2144.0, 2145.0, 2146.0, 3251.0, 2102.0, 2154.0, 2102.0, 3285.0, 3280.0, 2118.0, 6973.0, 3262.0, 2125.0, 2066.0, 3271.0, 3280.0, 2069.0, 3239.0, 2155.0, 2169.0, 2088.0, 3313.0, 2093.0, 2120.0, 2108.0, 5096.0, 3292.0, 2113.0, 3266.0, 3256.0, 6951.0, 2093.0, 2062.0, 3259.0, 2089.0, 2150.0],
      "WindowWidth": [15430.0, 15418.0, 7659.0, 5284.0, 7597.0, 7576.0, 11241.0, 5233.0, 5224.0, 5195.0, 7669.0, 11201.0, 5188.0, 5158.0, 5185.0, 5222.0, 7590.0, 5218.0, 5278.0, 5244.0, 5204.0, 15211.0, 7620.0, 5257.0, 7649.0, 7579.0, 5204.0, 5210.0, 5207.0, 5170.0, 11270.0, 5196.0, 7594.0, 5195.0, 5190.0, 11296.0, 5216.0, 5194.0, 7550.0, 5246.0, 5162.0, 15251.0, 5272.0, 5177.0, 5201.0, 11190.0, 7635.0, 5155.0, 5233.0, 7598.0, 5174.0, 7607.0, 7625.0, 5267.0, 11187.0, 7543.0, 5228.0, 7670.0, 5177.0, 5250.0, 7580.0, 15166.0, 7592.0, 5136.0, 5275.0, 5130.0, 5210.0, 11203.0, 7566.0, 7535.0, 5212.0, 5259.0, 5269.0, 5279.0, 7527.0, 5187.0, 5282.0, 5191.0, 7593.0, 7601.0, 5218.0, 15144.0, 7558.0, 5219.0, 5124.0, 7564.0, 7596.0, 5119.0, 7524.0, 5275.0, 5313.0, 5161.0, 7654.0, 5179.0, 5230.0, 5215.0, 11183.0, 7610.0, 5226.0, 7575.0, 7541.0, 15121.0, 5160.0, 5109.0, 7557.0, 5169.0, 5263.0]
    },
    "slices": {}
  }
}