{
  "AcquisitionMatrixPE": 110,
  "AcquisitionNumber": 1,
  "AcquisitionTime": "14:39:3.482500",
  "BandwidthPerPixelPhaseEncode": 12.987,
  "BaseResolution": 110,
  "BodyPartExamined": "BRAIN",
  "ConsistencyInfo": "N4_VE11C_LATEST_20160120",
  "ConversionSoftware": "dcm2niix",
  "ConversionSoftwareVersion": "v1.0.20190902",
  "DerivedVendorReportedEchoSpacing": 0.000700001,
  "DeviceSerialNumber": "167006",
  "DiffusionScheme": "Monopolar",
  "DwellTime": 2.7e-06,
  "EchoTime": 0.0816,
  "EchoTrainLength": 83,
  "EffectiveEchoSpacing": 0.000700001,
  "FlipAngle": 78,
  "ImageComments": "Unaliased_MB3_PE3_LB_SENSE1",
  "ImageOrientationPatientDICOM": [1, 0, 0, 0, 0.838671, -0.544639],
  "ImageType": [
    "ORIGINAL",
    "PRIMARY",
    "DIFFUSION",
    "NONE",
    "MB",
    "ND",
    "MOSAIC"
],
  "ImagingFrequency": 123.259,
  "InPlanePhaseEncodingDirectionDICOM": "COL",
  "InstitutionAddress": "Chemin_Queen-Mary_4565_Montreal_District_CA_H3W_1W5",
  "InstitutionName": "IUGM",
  "InstitutionalDepartmentName": "Department",
  "MRAcquisitionType": "2D",
  "MagneticFieldStrength": 3,
  "Manufacturer": "Siemens",
  "ManufacturersModelName": "Prisma_fit",
  "Modality": "MR",
  "MultibandAccelerationFactor": 3,
  "PartialFourier": 0.75,
  "PatientPosition": "HFS",
  "PercentPhaseFOV": 100,
  "PhaseEncodingDirection": "j",
  "PhaseEncodingSteps": 83,
  "PhaseResolution": 1,
  "PixelBandwidth": 1685,
  "ProcedureStepDescription": "hcptrt_generic",
  "ProtocolName": "dMRI_dir98_PA_test_cmrr",
  "PulseSequenceDetails": "%CustomerSeq%_cmrr_mbep2d_diff",
  "ReceiveCoilActiveElements": "HC1-6",
  "ReceiveCoilName": "HeadNeck_64",
  "ReconMatrixPE": 110,
  "RepetitionTime": 2.334,
  "SAR": 0.13933,
  "ScanOptions": "PFP_EXT",
  "ScanningSequence": "EP",
  "SequenceName": "ep_b5#1",
  "SequenceVariant": "SK_SS",
  "SeriesDescription": "dMRI_dir98_PA_test_cmrr",
  "SeriesNumber": 11,
  "ShimSetting": [621, -7183, -8887, 411, 4, -185, 40, 0],
  "SliceThickness": 2,
  "SliceTiming": [0, 1.22, 0.1225, 1.34, 0.245, 1.4625, 0.3675, 1.585, 0.4875, 1.705, 0.61, 1.8275, 0.7325, 1.95, 0.8525, 2.07, 0.975, 2.1925, 1.0975, 0, 1.22, 0.1225, 1.34, 0.245, 1.4625, 0.3675, 1.585, 0.4875, 1.705, 0.61, 1.8275, 0.7325, 1.95, 0.8525, 2.07, 0.975, 2.1925, 1.0975, 0, 1.22, 0.1225, 1.34, 0.245, 1.4625, 0.3675, 1.585, 0.4875, 1.705, 0.61, 1.8275, 0.7325, 1.95, 0.8525, 2.07, 0.975, 2.1925, 1.0975],
  "SoftwareVersions": "syngo_MR_E11",
  "SpacingBetweenSlices": 2,
  "StationName": "MRC35049",
  "TotalReadoutTime": 0.0763001,
  "TxRefAmp": 251.065,
  "WipMemBlock": "4bb4d78b-081b-498b-b5cc-2ce3be530433||Sequence: R016 ve11c/master r/e634e98; Dec 19 2017 11:11:25 by eja",
  "dcmmeta_affine": [
    [-2.0, 0.0, 0.0, 109.49686431884766],
    [0.0, 1.677341103553772, -1.0892781019210815, -64.56400299072266],
    [0.0, 1.0892781019210815, 1.6773412227630615, -109.94928741455078],
    [0.0, 0.0, 0.0, 1.0]
],
  "dcmmeta_reorient_transform": [
    [0.0, -1.0, 0.0, 109.0],
    [1.0, 0.0, 0.0, 0.0],
    [0.0, 0.0, 1.0, 0.0],
    [0.0, 0.0, 0.0, 1.0]
],
  "dcmmeta_shape": [110, 110, 57, 99],
  "dcmmeta_slice_dim": 2,
  "dcmmeta_version": 0.6,
  "global": {
    "const": {
      "AcquisitionMatrix": [110, 0, 0, 110],
      "AngioFlag": "N",
      "BitsAllocated": 16,
      "BitsStored": 16,
      "BodyPartExamined": "BRAIN",
      "CardiacNumberOfImages": 1,
      "Columns": 880,
      "EchoNumbers": 1,
      "EchoTime": 81.6,
      "EchoTrainLength": 83,
      "FlipAngle": 78.0,
      "HighBit": 15,
      "ImageOrientationPatient": [1.0, 0.0, 0.0, 0.0, 0.83867056370374, -0.5446390415466],
      "ImagePositionPatient": [-879.49686384201, -764.04251289889, 428.1540835508],
      "ImageType": [
        "ORIGINAL",
        "PRIMARY",
        "DIFFUSION",
        "NONE",
        "MB",
        "ND",
        "MOSAIC"
],
      "ImagedNucleus": "1H",
      "ImagingFrequency": 123.259231,
      "InPlanePhaseEncodingDirection": "COL",
      "MRAcquisitionType": "2D",
      "MagneticFieldStrength": 3.0,
      "Manufacturer": "SIEMENS",
      "ManufacturerModelName": "Prisma_fit",
      "Modality": "MR",
      "NominalInterval": 0,
      "NumberOfAverages": 1.0,
      "NumberOfPhaseEncodingSteps": 83,
      "PercentPhaseFieldOfView": 100.0,
      "PercentSampling": 100.0,
      "PerformedProcedureStepStartTime": "141423.032000",
      "PhotometricInterpretation": "MONOCHROME2",
      "PixelBandwidth": 1685.0,
      "PixelRepresentation": 0,
      "PixelSpacing": [2.0, 2.0],
      "ProtocolName": "dMRI_dir98_PA_test_cmrr",
      "RepetitionTime": 2334.0,
      "Rows": 880,
      "SAR": 0.13932992894269,
      "SamplesPerPixel": 1,
      "ScanOptions": [
        "PFP",
        "EXT"
],
      "ScanningSequence": "EP",
      "SequenceVariant": [
        "SK",
        "SS"
],
      "SeriesDescription": "dMRI_dir98_PA_test_cmrr",
      "SeriesNumber": 11,
      "SeriesTime": "144005.865000",
      "SliceLocation": -57.04715532254,
      "SliceThickness": 2.0,
      "SmallestImagePixelValue": 0,
      "SoftwareVersions": "syngo MR E11",
      "SpacingBetweenSlices": 2.0000000523862,
      "SpecificCharacterSet": "ISO_IR 100",
      "StudyID": "1",
      "StudyTime": "141422.980000",
      "TransmitCoilName": "Body",
      "VariableFlipAngleFlag": "N",
      "WindowCenterWidthExplanation": "Algo1",
      "dBdt": 0.0},
    "slices": {}
  },
  "time": {
    "samples": {
      "AcquisitionNumber": [1, 2, 3, 4, 5, 6, 7, 8, 9, 10, 11, 12, 13, 14, 15, 16, 17, 18, 19, 20, 21, 22, 23, 24, 25, 26, 27, 28, 29, 30, 31, 32, 33, 34, 35, 36, 37, 38, 39, 40, 41, 42, 43, 44, 45, 46, 47, 48, 49, 50, 51, 52, 53, 54, 55, 56, 57, 58, 59, 60, 61, 62, 63, 64, 65, 66, 67, 68, 69, 70, 71, 72, 73, 74, 75, 76, 77, 78, 79, 80, 81, 82, 83, 84, 85, 86, 87, 88, 89, 90, 91, 92, 93, 94, 95, 96, 97, 98, 99],
      "AcquisitionTime": ["143903.482500", "143905.817500", "143908.152500", "143910.485000", "143912.820000", "143915.152500", "143917.487500", "143919.822500", "143922.155000", "143924.490000", "143926.822500", "143929.157500", "143931.492500", "143933.825000", "143936.160000", "143938.492500", "143940.827500", "143943.162500", "143945.495000", "143947.830000", "143950.162500", "143952.497500", "143954.832500", "143957.165000", "143959.500000", "144001.832500", "144004.167500", "144006.502500", "144008.835000", "144011.170000", "144013.502500", "144015.837500", "144018.172500", "144020.505000", "144022.840000", "144025.172500", "144027.507500", "144029.842500", "144032.175000", "144034.510000", "144036.842500", "144039.177500", "144041.512500", "144043.845000", "144046.180000", "144048.512500", "144050.847500", "144053.182500", "144055.515000", "144057.850000", "144100.182500", "144102.517500", "144104.852500", "144107.185000", "144109.520000", "144111.852500", "144114.187500", "144116.522500", "144118.855000", "144121.190000", "144123.522500", "144125.857500", "144128.192500", "144130.525000", "144132.860000", "144135.192500", "144137.527500", "144139.862500", "144142.195000", "144144.530000", "144146.862500", "144149.197500", "144151.532500", "144153.865000", "144156.200000", "144158.532500", "144200.867500", "144203.202500", "144205.535000", "144207.870000", "144210.202500", "144212.537500", "144214.872500", "144217.205000", "144219.540000", "144221.872500", "144224.207500", "144226.542500", "144228.875000", "144231.210000", "144233.542500", "144235.877500", "144238.212500", "144240.545000", "144242.880000", "144245.212500", "144247.547500", "144249.882500", "144252.215000"],
      "ContentTime": ["144005.868000", "144005.871000", "144005.874000", "144005.877000", "144005.881000", "144005.884000", "144005.887000", "144005.894000", "144005.897000", "144005.900000", "144005.903000", "144005.906000", "144005.909000", "144005.912000", "144005.915000", "144005.918000", "144005.921000", "144005.925000", "144005.928000", "144005.931000", "144005.934000", "144005.937000", "144005.940000", "144005.943000", "144005.946000", "144005.949000", "144105.255000", "144105.258000", "144105.261000", "144105.264000", "144105.268000", "144105.271000", "144105.274000", "144105.277000", "144105.280000", "144105.285000", "144105.288000", "144105.291000", "144105.294000", "144105.297000", "144105.300000", "144105.303000", "144105.306000", "144105.310000", "144105.313000", "144105.316000", "144105.319000", "144105.322000", "144105.325000", "144105.328000", "144105.331000", "144105.334000", "144205.256000", "144205.259000", "144205.263000", "144205.266000", "144205.269000", "144205.272000", "144205.298000", "144205.301000", "144205.304000", "144205.307000", "144205.311000", "144205.314000", "144205.317000", "144205.320000", "144205.339000", "144205.342000", "144205.345000", "144205.348000", "144205.352000", "144205.355000", "144205.358000", "144205.361000", "144205.364000", "144205.367000", "144205.370000", "144256.731000", "144256.734000", "144256.737000", "144256.744000", "144256.747000", "144256.750000", "144256.753000", "144256.761000", "144256.764000", "144256.767000", "144256.770000", "144256.773000", "144256.776000", "144256.779000", "144256.782000", "144256.785000", "144256.788000", "144256.791000", "144256.794000", "144256.798000", "144256.801000", "144256.804000"],
      "InstanceCreationTime": ["144005.868000", "144005.871000", "144005.874000", "144005.877000", "144005.881000", "144005.884000", "144005.887000", "144005.894000", "144005.897000", "144005.900000", "144005.903000", "144005.906000", "144005.909000", "144005.912000", "144005.915000", "144005.918000", "144005.921000", "144005.925000", "144005.928000", "144005.931000", "144005.934000", "144005.937000", "144005.940000", "144005.943000", "144005.946000", "144005.949000", "144105.255000", "144105.258000", "144105.261000", "144105.264000", "144105.268000", "144105.271000", "144105.274000", "144105.277000", "144105.280000", "144105.285000", "144105.288000", "144105.291000", "144105.294000", "144105.297000", "144105.300000", "144105.303000", "144105.306000", "144105.310000", "144105.313000", "144105.316000", "144105.319000", "144105.322000", "144105.325000", "144105.328000", "144105.331000", "144105.334000", "144205.256000", "144205.259000", "144205.263000", "144205.266000", "144205.269000", "144205.272000", "144205.298000", "144205.301000", "144205.304000", "144205.307000", "144205.311000", "144205.314000", "144205.317000", "144205.320000", "144205.339000", "144205.342000", "144205.345000", "144205.348000", "144205.352000", "144205.355000", "144205.358000", "144205.361000", "144205.364000", "144205.367000", "144205.370000", "144256.731000", "144256.734000", "144256.737000", "144256.744000", "144256.747000", "144256.750000", "144256.753000", "144256.761000", "144256.764000", "144256.767000", "144256.770000", "144256.773000", "144256.776000", "144256.779000", "144256.782000", "144256.785000", "144256.788000", "144256.791000", "144256.794000", "144256.798000", "144256.801000", "144256.804000"],
      "InstanceNumber": [1, 2, 3, 4, 5, 6, 7, 8, 9, 10, 11, 12, 13, 14, 15, 16, 17, 18, 19, 20, 21, 22, 23, 24, 25, 26, 27, 28, 29, 30, 31, 32, 33, 34, 35, 36, 37, 38, 39, 40, 41, 42, 43, 44, 45, 46, 47, 48, 49, 50, 51, 52, 53, 54, 55, 56, 57, 58, 59, 60, 61, 62, 63, 64, 65, 66, 67, 68, 69, 70, 71, 72, 73, 74, 75, 76, 77, 78, 79, 80, 81, 82, 83, 84, 85, 86, 87, 88, 89, 90, 91, 92, 93, 94, 95, 96, 97, 98, 99],
      "LargestImagePixelValue": [58195, 58295, 18518, 7857, 18366, 8258, 17122, 9974, 17397, 7447, 18063, 7850, 17600, 7205, 17099, 8684, 17775, 65535, 8045, 17911, 6491, 17650, 8445, 18320, 7788, 17490, 9191, 18015, 7369, 16636, 8904, 17851, 8156, 54994, 15664, 7888, 19301, 9340, 17230, 7144, 18934, 7507, 16689, 7472, 17288, 6928, 18486, 8309, 18026, 57118, 8020, 17221, 7319, 17229, 8075, 17360, 7292, 16775, 7061, 17550, 7771, 16778, 8378, 16018, 7552, 57431, 17243, 7952, 17679, 6775, 18447, 9022, 17322, 9131, 18386, 7239, 17588, 7308, 17468, 7619, 16525, 56263, 7701, 18137, 8294, 17449, 8744, 19040, 6998, 17617, 9135, 18723, 7238, 16961, 8859, 15568, 7190, 16448, 7436],
      "SequenceName": [
 "ep_b5#1",
 "ep_b5#1",
 "ep_b1490#2",
 "ep_b2990#3",
 "ep_b1495#4",
 "ep_b3005#5",
 "ep_b1505#6",
 "ep_b2985#7",
 "ep_b1495#8",
 "ep_b3005#9",
 "ep_b1490#10",
 "ep_b2990#11",
 "ep_b1495#12",
 "ep_b2990#13",
 "ep_b1500#14",
 "ep_b2985#15",
 "ep_b1500#16",
 "ep_b5#17",
 "ep_b3000#18",
 "ep_b1495#19",
 "ep_b3000#20",
 "ep_b1495#21",
 "ep_b2995#22",
 "ep_b1495#23",
 "ep_b3000#24",
 "ep_b1490#25",
 "ep_b2985#26",
 "ep_b1505#27",
 "ep_b2990#28",
 "ep_b1495#29",
 "ep_b3000#30",
 "ep_b1490#31",
 "ep_b3000#32",
 "ep_b5#33",
 "ep_b1505#34",
 "ep_b3000#35",
 "ep_b1490#36",
 "ep_b2985#37",
 "ep_b1495#38",
 "ep_b3000#39",
 "ep_b1500#40",
 "ep_b2995#41",
 "ep_b1505#42",
 "ep_b2990#43",
 "ep_b1495#44",
 "ep_b3000#45",
 "ep_b1495#46",
 "ep_b3000#47",
 "ep_b1490#48",
 "ep_b5#49",
 "ep_b3000#50",
 "ep_b1495#51",
 "ep_b2995#52",
 "ep_b1505#53",
 "ep_b2995#54",
 "ep_b1490#55",
 "ep_b2990#56",
 "ep_b1490#57",
 "ep_b3000#58",
 "ep_b1500#59",
 "ep_b3000#60",
 "ep_b1500#61",
 "ep_b2985#62",
 "ep_b1500#63",
 "ep_b2990#64",
 "ep_b5#65",
 "ep_b1505#66",
 "ep_b3000#67",
 "ep_b1495#68",
 "ep_b3000#69",
 "ep_b1505#70",
 "ep_b3005#71",
 "ep_b1500#72",
 "ep_b3005#73",
 "ep_b1495#74",
 "ep_b2990#75",
 "ep_b1495#76",
 "ep_b2995#77",
 "ep_b1500#78",
 "ep_b3000#79",
 "ep_b1490#80",
 "ep_b5#81",
 "ep_b2990#82",
 "ep_b1500#83",
 "ep_b2985#84",
 "ep_b1495#85",
 "ep_b2995#86",
 "ep_b1495#87",
 "ep_b2990#88",
 "ep_b1490#89",
 "ep_b2985#90",
 "ep_b1495#91",
 "ep_b2995#92",
 "ep_b1495#93",
 "ep_b3005#94",
 "ep_b1500#95",
 "ep_b2990#96",
 "ep_b1500#97",
 "ep_b2995#98"
],
      "TriggerTime": [13297.5, 15632.5, 17965.0, 20300.0, 22635.0, 24967.5, 27302.5, 29635.0, 31970.0, 34305.0, 36637.5, 38972.5, 41305.0, 43640.0, 45975.0, 48307.5, 50642.5, 52975.0, 55310.0, 57645.0, 59977.5, 62312.5, 64645.0, 66980.0, 69315.0, 71647.5, 73982.5, 76315.0, 78650.0, 80985.0, 83317.5, 85652.5, 87985.0, 90320.0, 92655.0, 94987.5, 97322.5, 99655.0, 101990.0, 104325.0, 106657.5, 108992.5, 111325.0, 113660.0, 115995.0, 118327.5, 120662.5, 122995.0, 125330.0, 127665.0, 129997.5, 132332.5, 134665.0, 137000.0, 139335.0, 141667.5, 144002.5, 146335.0, 148670.0, 151005.0, 153337.5, 155672.5, 158005.0, 160340.0, 162675.0, 165007.5, 167342.5, 169675.0, 172010.0, 174345.0, 176677.5, 179012.5, 181345.0, 183680.0, 186015.0, 188347.5, 190682.5, 193015.0, 195350.0, 197685.0, 200017.5, 202352.5, 204685.0, 207020.0, 209355.0, 211687.5, 214022.5, 216355.0, 218690.0, 221025.0, 223357.5, 225692.5, 228025.0, 230360.0, 232695.0, 235027.5, 237362.5, 239695.0, 242030.0],
      "WindowCenter": [7819.0, 7832.0, 2915.0, 1695.0, 2897.0, 1716.0, 2889.0, 1769.0, 2917.0, 1679.0, 2892.0, 1739.0, 2921.0, 1725.0, 2886.0, 1737.0, 2887.0, 7882.0, 1717.0, 2936.0, 1645.0, 2927.0, 1745.0, 2940.0, 1741.0, 2873.0, 1711.0, 2890.0, 1714.0, 2889.0, 1712.0, 2901.0, 1711.0, 7749.0, 2848.0, 1703.0, 2938.0, 1728.0, 2877.0, 1700.0, 2945.0, 1689.0, 2870.0, 1714.0, 2927.0, 1656.0, 2946.0, 1751.0, 2890.0, 7732.0, 1720.0, 2929.0, 1704.0, 2878.0, 1739.0, 2872.0, 1712.0, 2901.0, 1646.0, 2913.0, 1694.0, 2859.0, 1717.0, 2887.0, 1716.0, 7747.0, 2877.0, 1731.0, 2899.0, 1656.0, 2924.0, 1755.0, 2890.0, 1723.0, 2874.0, 1695.0, 2902.0, 1726.0, 2906.0, 1675.0, 2856.0, 7703.0, 1700.0, 2899.0, 1694.0, 2882.0, 1762.0, 2923.0, 1685.0, 2863.0, 1728.0, 2923.0, 1699.0, 2904.0, 1744.0, 2853.0, 1686.0, 2851.0, 1699.0],
      "WindowWidth": [16946.0, 16973.0, 6880.0, 4316.0, 6832.0, 4377.0, 6810.0, 4480.0, 6883.0, 4305.0, 6850.0, 4412.0, 6878.0, 4410.0, 6816.0, 4432.0, 6830.0, 17084.0, 4380.0, 6907.0, 4227.0, 6881.0, 4442.0, 6921.0, 4416.0, 6795.0, 4351.0, 6846.0, 4392.0, 6820.0, 4362.0, 6850.0, 4360.0, 16795.0, 6768.0, 4353.0, 6920.0, 4391.0, 6789.0, 4331.0, 6926.0, 4319.0, 6791.0, 4367.0, 6900.0, 4243.0, 6925.0, 4460.0, 6837.0, 16747.0, 4394.0, 6886.0, 4352.0, 6828.0, 4435.0, 6789.0, 4357.0, 6853.0, 4233.0, 6865.0, 4348.0, 6775.0, 4373.0, 6800.0, 4374.0, 16782.0, 6826.0, 4410.0, 6842.0, 4242.0, 6897.0, 4453.0, 6814.0, 4373.0, 6805.0, 4344.0, 6854.0, 4387.0, 6847.0, 4292.0, 6760.0, 16686.0, 4332.0, 6849.0, 4313.0, 6807.0, 4478.0, 6886.0, 4306.0, 6787.0, 4392.0, 6885.0, 4335.0, 6836.0, 4433.0, 6748.0, 4339.0, 6768.0, 4336.0]
    },
    "slices": {}
  }
}