{
  "AcquisitionMatrixPE": 110,
  "AcquisitionNumber": 1,
  "AcquisitionTime": "14:34:53.360000",
  "BandwidthPerPixelPhaseEncode": 12.987,
  "BaseResolution": 110,
  "BodyPartExamined": "BRAIN",
  "ConsistencyInfo": "N4_VE11C_LATEST_20160120",
  "ConversionSoftware": "dcm2niix",
  "ConversionSoftwareVersion": "v1.0.20190902",
  "DerivedVendorReportedEchoSpacing": 0.000700001,
  "DeviceSerialNumber": "167006",
  "DiffusionScheme": "Monopolar",
  "DwellTime": 2.7e-06,
  "EchoTime": 0.0816,
  "EchoTrainLength": 83,
  "EffectiveEchoSpacing": 0.000700001,
  "FlipAngle": 78,
  "ImageComments": "Unaliased_MB3_PE3_LB_SENSE1",
  "ImageOrientationPatientDICOM": [1, 0, 0, 0, 0.838671, -0.544639],
  "ImageType": [
    "ORIGINAL",
    "PRIMARY",
    "DIFFUSION",
    "NONE",
    "MB",
    "ND",
    "MOSAIC"
],
  "ImagingFrequency": 123.259,
  "InPlanePhaseEncodingDirectionDICOM": "COL",
  "InstitutionAddress": "Chemin_Queen-Mary_4565_Montreal_District_CA_H3W_1W5",
  "InstitutionName": "IUGM",
  "InstitutionalDepartmentName": "Department",
  "MRAcquisitionType": "2D",
  "MagneticFieldStrength": 3,
  "Manufacturer": "Siemens",
  "ManufacturersModelName": "Prisma_fit",
  "Modality": "MR",
  "MultibandAccelerationFactor": 3,
  "PartialFourier": 0.75,
  "PatientPosition": "HFS",
  "PercentPhaseFOV": 100,
  "PhaseEncodingDirection": "j-",
  "PhaseEncodingSteps": 83,
  "PhaseResolution": 1,
  "PixelBandwidth": 1685,
  "ProcedureStepDescription": "hcptrt_generic",
  "ProtocolName": "dMRI_dir98_AP_test_cmrr",
  "PulseSequenceDetails": "%CustomerSeq%_cmrr_mbep2d_diff",
  "ReceiveCoilActiveElements": "HC1-6",
  "ReceiveCoilName": "HeadNeck_64",
  "ReconMatrixPE": 110,
  "RepetitionTime": 2.334,
  "SAR": 0.13933,
  "ScanOptions": "PFP_EXT",
  "ScanningSequence": "EP",
  "SequenceName": "ep_b5#1",
  "SequenceVariant": "SK_SS",
  "SeriesDescription": "dMRI_dir98_AP_test_cmrr",
  "SeriesNumber": 7,
  "ShimSetting": [621, -7183, -8887, 411, 4, -185, 40, 0],
  "SliceThickness": 2,
  "SliceTiming": [0, 1.2175, 0.1225, 1.34, 0.245, 1.4625, 0.365, 1.5825, 0.4875, 1.705, 0.61, 1.8275, 0.73, 1.95, 0.8525, 2.07, 0.975, 2.1925, 1.0975, 0, 1.2175, 0.1225, 1.34, 0.245, 1.4625, 0.365, 1.5825, 0.4875, 1.705, 0.61, 1.8275, 0.73, 1.95, 0.8525, 2.07, 0.975, 2.1925, 1.0975, 0, 1.2175, 0.1225, 1.34, 0.245, 1.4625, 0.365, 1.5825, 0.4875, 1.705, 0.61, 1.8275, 0.73, 1.95, 0.8525, 2.07, 0.975, 2.1925, 1.0975],
  "SoftwareVersions": "syngo_MR_E11",
  "SpacingBetweenSlices": 2,
  "StationName": "MRC35049",
  "TotalReadoutTime": 0.0763001,
  "TxRefAmp": 251.065,
  "WipMemBlock": "ee283fb1-cab5-4a5c-90ac-76deb0631efd||Sequence: R016 ve11c/master r/e634e98; Dec 19 2017 11:11:25 by eja",
  "dcmmeta_affine": [
    [-2.0, 0.0, 0.0, 109.49686431884766],
    [0.0, 1.677341103553772, -1.0892781019210815, -64.56400299072266],
    [0.0, 1.0892781019210815, 1.6773412227630615, -109.94928741455078],
    [0.0, 0.0, 0.0, 1.0]
],
  "dcmmeta_reorient_transform": [
    [0.0, -1.0, 0.0, 109.0],
    [1.0, 0.0, 0.0, 0.0],
    [0.0, 0.0, 1.0, 0.0],
    [0.0, 0.0, 0.0, 1.0]
],
  "dcmmeta_shape": [110, 110, 57, 99],
  "dcmmeta_slice_dim": 2,
  "dcmmeta_version": 0.6,
  "global": {
    "const": {
      "AcquisitionMatrix": [110, 0, 0, 110],
      "AngioFlag": "N",
      "BitsAllocated": 16,
      "BitsStored": 16,
      "BodyPartExamined": "BRAIN",
      "CardiacNumberOfImages": 1,
      "Columns": 880,
      "EchoNumbers": 1,
      "EchoTime": 81.6,
      "EchoTrainLength": 83,
      "FlipAngle": 78.0,
      "HighBit": 15,
      "ImageOrientationPatient": [1.0, 0.0, 0.0, 0.0, 0.83867056370374, -0.5446390415466],
      "ImagePositionPatient": [-879.49686384201, -764.04251289889, 428.1540835508],
      "ImageType": [
        "ORIGINAL",
        "PRIMARY",
        "DIFFUSION",
        "NONE",
        "MB",
        "ND",
        "MOSAIC"
],
      "ImagedNucleus": "1H",
      "ImagingFrequency": 123.259224,
      "InPlanePhaseEncodingDirection": "COL",
      "MRAcquisitionType": "2D",
      "MagneticFieldStrength": 3.0,
      "Manufacturer": "SIEMENS",
      "ManufacturerModelName": "Prisma_fit",
      "Modality": "MR",
      "NominalInterval": 0,
      "NumberOfAverages": 1.0,
      "NumberOfPhaseEncodingSteps": 83,
      "PercentPhaseFieldOfView": 100.0,
      "PercentSampling": 100.0,
      "PerformedProcedureStepStartTime": "141423.032000",
      "PhotometricInterpretation": "MONOCHROME2",
      "PixelBandwidth": 1685.0,
      "PixelRepresentation": 0,
      "PixelSpacing": [2.0, 2.0],
      "ProtocolName": "dMRI_dir98_AP_test_cmrr",
      "RepetitionTime": 2334.0,
      "Rows": 880,
      "SAR": 0.13932992894269,
      "SamplesPerPixel": 1,
      "ScanOptions": [
        "PFP",
        "EXT"
],
      "ScanningSequence": "EP",
      "SequenceVariant": [
        "SK",
        "SS"
],
      "SeriesDescription": "dMRI_dir98_AP_test_cmrr",
      "SeriesNumber": 7,
      "SeriesTime": "143555.246000",
      "SliceLocation": -57.04715532254,
      "SliceThickness": 2.0,
      "SmallestImagePixelValue": 0,
      "SoftwareVersions": "syngo MR E11",
      "SpacingBetweenSlices": 2.0000000523862,
      "SpecificCharacterSet": "ISO_IR 100",
      "StudyID": "1",
      "StudyTime": "141422.980000",
      "TransmitCoilName": "Body",
      "VariableFlipAngleFlag": "N",
      "WindowCenterWidthExplanation": "Algo1",
      "dBdt": 0.0},
    "slices": {}
  },
  "time": {
    "samples": {
      "AcquisitionNumber": [1, 2, 3, 4, 5, 6, 7, 8, 9, 10, 11, 12, 13, 14, 15, 16, 17, 18, 19, 20, 21, 22, 23, 24, 25, 26, 27, 28, 29, 30, 31, 32, 33, 34, 35, 36, 37, 38, 39, 40, 41, 42, 43, 44, 45, 46, 47, 48, 49, 50, 51, 52, 53, 54, 55, 56, 57, 58, 59, 60, 61, 62, 63, 64, 65, 66, 67, 68, 69, 70, 71, 72, 73, 74, 75, 76, 77, 78, 79, 80, 81, 82, 83, 84, 85, 86, 87, 88, 89, 90, 91, 92, 93, 94, 95, 96, 97, 98, 99],
      "AcquisitionTime": ["143453.360000", "143455.695000", "143458.027500", "143500.362500", "143502.697500", "143505.030000", "143507.365000", "143509.697500", "143512.032500", "143514.367500", "143516.700000", "143519.035000", "143521.367500", "143523.702500", "143526.037500", "143528.370000", "143530.705000", "143533.037500", "143535.372500", "143537.707500", "143540.040000", "143542.375000", "143544.707500", "143547.042500", "143549.377500", "143551.710000", "143554.045000", "143556.377500", "143558.712500", "143601.047500", "143603.380000", "143605.715000", "143608.047500", "143610.382500", "143612.717500", "143615.050000", "143617.385000", "143619.717500", "143622.052500", "143624.387500", "143626.720000", "143629.055000", "143631.387500", "143633.722500", "143636.057500", "143638.390000", "143640.725000", "143643.057500", "143645.392500", "143647.727500", "143650.060000", "143652.395000", "143654.727500", "143657.062500", "143659.397500", "143701.730000", "143704.065000", "143706.397500", "143708.732500", "143711.067500", "143713.400000", "143715.735000", "143718.067500", "143720.402500", "143722.737500", "143725.070000", "143727.405000", "143729.737500", "143732.072500", "143734.407500", "143736.740000", "143739.075000", "143741.407500", "143743.742500", "143746.077500", "143748.410000", "143750.745000", "143753.077500", "143755.412500", "143757.747500", "143800.080000", "143802.415000", "143804.747500", "143807.082500", "143809.417500", "143811.750000", "143814.085000", "143816.417500", "143818.752500", "143821.087500", "143823.420000", "143825.755000", "143828.087500", "143830.422500", "143832.757500", "143835.090000", "143837.425000", "143839.757500", "143842.092500"],
      "ContentTime": ["143555.249000", "143555.252000", "143555.256000", "143555.259000", "143555.262000", "143555.265000", "143555.268000", "143555.271000", "143555.274000", "143555.277000", "143555.280000", "143555.283000", "143555.287000", "143555.290000", "143555.293000", "143555.296000", "143555.299000", "143555.302000", "143555.313000", "143555.316000", "143555.319000", "143555.322000", "143555.325000", "143555.328000", "143555.334000", "143555.337000", "143615.216000", "143615.219000", "143615.222000", "143615.226000", "143615.229000", "143615.232000", "143615.235000", "143615.245000", "143615.248000", "143715.215000", "143715.218000", "143715.221000", "143715.224000", "143715.228000", "143715.231000", "143715.234000", "143715.237000", "143715.240000", "143715.243000", "143715.246000", "143715.249000", "143715.258000", "143715.261000", "143715.264000", "143715.267000", "143715.271000", "143715.274000", "143715.277000", "143715.280000", "143715.283000", "143715.286000", "143715.289000", "143715.292000", "143715.295000", "143815.216000", "143815.219000", "143815.222000", "143815.226000", "143815.229000", "143815.232000", "143815.235000", "143815.238000", "143815.241000", "143815.244000", "143815.247000", "143815.250000", "143815.253000", "143815.256000", "143815.259000", "143815.263000", "143815.266000", "143815.269000", "143815.272000", "143815.275000", "143815.278000", "143815.281000", "143815.284000", "143815.287000", "143815.290000", "143815.298000", "143846.558000", "143846.564000", "143846.567000", "143846.570000", "143846.581000", "143846.584000", "143846.587000", "143846.590000", "143846.593000", "143846.596000", "143846.599000", "143846.602000", "143846.605000"],
      "InstanceCreationTime": ["143555.249000", "143555.252000", "143555.256000", "143555.259000", "143555.262000", "143555.265000", "143555.268000", "143555.271000", "143555.274000", "143555.277000", "143555.280000", "143555.283000", "143555.287000", "143555.290000", "143555.293000", "143555.296000", "143555.299000", "143555.302000", "143555.313000", "143555.316000", "143555.319000", "143555.322000", "143555.325000", "143555.328000", "143555.334000", "143555.337000", "143615.216000", "143615.219000", "143615.222000", "143615.226000", "143615.229000", "143615.232000", "143615.235000", "143615.245000", "143615.248000", "143715.215000", "143715.218000", "143715.221000", "143715.224000", "143715.228000", "143715.231000", "143715.234000", "143715.237000", "143715.240000", "143715.243000", "143715.246000", "143715.249000", "143715.258000", "143715.261000", "143715.264000", "143715.267000", "143715.271000", "143715.274000", "143715.277000", "143715.280000", "143715.283000", "143715.286000", "143715.289000", "143715.292000", "143715.295000", "143815.216000", "143815.219000", "143815.222000", "143815.226000", "143815.229000", "143815.232000", "143815.235000", "143815.238000", "143815.241000", "143815.244000", "143815.247000", "143815.250000", "143815.253000", "143815.256000", "143815.259000", "143815.263000", "143815.266000", "143815.269000", "143815.272000", "143815.275000", "143815.278000", "143815.281000", "143815.284000", "143815.287000", "143815.290000", "143815.298000", "143846.558000", "143846.564000", "143846.567000", "143846.570000", "143846.581000", "143846.584000", "143846.587000", "143846.590000", "143846.593000", "143846.596000", "143846.599000", "143846.602000", "143846.605000"],
      "InstanceNumber": [1, 2, 3, 4, 5, 6, 7, 8, 9, 10, 11, 12, 13, 14, 15, 16, 17, 18, 19, 20, 21, 22, 23, 24, 25, 26, 27, 28, 29, 30, 31, 32, 33, 34, 35, 36, 37, 38, 39, 40, 41, 42, 43, 44, 45, 46, 47, 48, 49, 50, 51, 52, 53, 54, 55, 56, 57, 58, 59, 60, 61, 62, 63, 64, 65, 66, 67, 68, 69, 70, 71, 72, 73, 74, 75, 76, 77, 78, 79, 80, 81, 82, 83, 84, 85, 86, 87, 88, 89, 90, 91, 92, 93, 94, 95, 96, 97, 98, 99],
      "LargestImagePixelValue": [61502, 63005, 10734, 4504, 9401, 4264, 9752, 6378, 10136, 6994, 11872, 3961, 9656, 5638, 10539, 5875, 10662, 60320, 4904, 10201, 4527, 9005, 5104, 11703, 4260, 10642, 5315, 9641, 5105, 9572, 6383, 11037, 4392, 57258, 9714, 5292, 11489, 6737, 9124, 4202, 9525, 4963, 10356, 4521, 11225, 4669, 10513, 5618, 10607, 54948, 5458, 8712, 4953, 11805, 6380, 10530, 4087, 9442, 5897, 11542, 5843, 11213, 6548, 9682, 4447, 55240, 10203, 5123, 10216, 4154, 9799, 5429, 10059, 6742, 10364, 5591, 10212, 3917, 9413, 5605, 9911, 55700, 4439, 10956, 4832, 8615, 6287, 10662, 4281, 11574, 6682, 10762, 4262, 8872, 5682, 9968, 5892, 10749, 3736],
      "SequenceName": [
 "ep_b5#1",
 "ep_b5#1",
 "ep_b1490#2",
 "ep_b2990#3",
 "ep_b1495#4",
 "ep_b3005#5",
 "ep_b1505#6",
 "ep_b2985#7",
 "ep_b1495#8",
 "ep_b3005#9",
 "ep_b1490#10",
 "ep_b2990#11",
 "ep_b1495#12",
 "ep_b2990#13",
 "ep_b1500#14",
 "ep_b2985#15",
 "ep_b1500#16",
 "ep_b5#17",
 "ep_b3000#18",
 "ep_b1495#19",
 "ep_b3000#20",
 "ep_b1495#21",
 "ep_b2995#22",
 "ep_b1495#23",
 "ep_b3000#24",
 "ep_b1490#25",
 "ep_b2985#26",
 "ep_b1505#27",
 "ep_b2990#28",
 "ep_b1495#29",
 "ep_b3000#30",
 "ep_b1490#31",
 "ep_b3000#32",
 "ep_b5#33",
 "ep_b1505#34",
 "ep_b3000#35",
 "ep_b1490#36",
 "ep_b2985#37",
 "ep_b1495#38",
 "ep_b3000#39",
 "ep_b1500#40",
 "ep_b2995#41",
 "ep_b1505#42",
 "ep_b2990#43",
 "ep_b1495#44",
 "ep_b3000#45",
 "ep_b1495#46",
 "ep_b3000#47",
 "ep_b1490#48",
 "ep_b5#49",
 "ep_b3000#50",
 "ep_b1495#51",
 "ep_b2995#52",
 "ep_b1505#53",
 "ep_b2995#54",
 "ep_b1490#55",
 "ep_b2990#56",
 "ep_b1490#57",
 "ep_b3000#58",
 "ep_b1500#59",
 "ep_b3000#60",
 "ep_b1500#61",
 "ep_b2985#62",
 "ep_b1500#63",
 "ep_b2990#64",
 "ep_b5#65",
 "ep_b1505#66",
 "ep_b3000#67",
 "ep_b1495#68",
 "ep_b3000#69",
 "ep_b1505#70",
 "ep_b3005#71",
 "ep_b1500#72",
 "ep_b3005#73",
 "ep_b1495#74",
 "ep_b2990#75",
 "ep_b1495#76",
 "ep_b2995#77",
 "ep_b1500#78",
 "ep_b3000#79",
 "ep_b1490#80",
 "ep_b5#81",
 "ep_b2990#82",
 "ep_b1500#83",
 "ep_b2985#84",
 "ep_b1495#85",
 "ep_b2995#86",
 "ep_b1495#87",
 "ep_b2990#88",
 "ep_b1490#89",
 "ep_b2985#90",
 "ep_b1495#91",
 "ep_b2995#92",
 "ep_b1495#93",
 "ep_b3005#94",
 "ep_b1500#95",
 "ep_b2990#96",
 "ep_b1500#97",
 "ep_b2995#98"
],
      "TriggerTime": [13297.5, 15632.5, 17965.0, 20300.0, 22632.5, 24967.5, 27302.5, 29635.0, 31970.0, 34302.5, 36637.5, 38972.5, 41305.0, 43640.0, 45972.5, 48307.5, 50642.5, 52975.0, 55310.0, 57642.5, 59977.5, 62312.5, 64645.0, 66980.0, 69312.5, 71647.5, 73982.5, 76315.0, 78650.0, 80982.5, 83317.5, 85652.5, 87985.0, 90320.0, 92652.5, 94987.5, 97322.5, 99655.0, 101990.0, 104322.5, 106657.5, 108992.5, 111325.0, 113660.0, 115992.5, 118327.5, 120662.5, 122995.0, 125330.0, 127662.5, 129997.5, 132332.5, 134665.0, 137000.0, 139332.5, 141667.5, 144002.5, 146335.0, 148670.0, 151002.5, 153337.5, 155672.5, 158005.0, 160340.0, 162672.5, 165007.5, 167342.5, 169675.0, 172010.0, 174342.5, 176677.5, 179012.5, 181345.0, 183680.0, 186012.5, 188347.5, 190682.5, 193015.0, 195350.0, 197682.5, 200017.5, 202352.5, 204685.0, 207020.0, 209352.5, 211687.5, 214022.5, 216355.0, 218690.0, 221022.5, 223357.5, 225692.5, 228025.0, 230360.0, 232692.5, 235027.5, 237362.5, 239695.0, 242030.0],
      "WindowCenter": [7793.0, 7812.0, 2715.0, 1537.0, 2720.0, 1512.0, 2682.0, 1610.0, 2704.0, 1595.0, 2725.0, 1511.0, 2731.0, 1603.0, 2702.0, 1616.0, 2696.0, 7707.0, 1556.0, 2733.0, 1510.0, 2677.0, 1560.0, 2724.0, 1538.0, 2699.0, 1580.0, 2682.0, 1610.0, 2724.0, 1607.0, 2754.0, 1525.0, 7667.0, 2675.0, 1552.0, 2715.0, 1625.0, 2674.0, 1521.0, 2682.0, 1536.0, 2655.0, 1534.0, 2731.0, 1518.0, 2682.0, 1620.0, 2727.0, 7667.0, 1560.0, 2683.0, 1560.0, 2692.0, 1645.0, 2726.0, 1535.0, 2704.0, 1560.0, 2754.0, 1563.0, 2684.0, 1604.0, 2698.0, 1539.0, 7632.0, 2669.0, 1573.0, 2728.0, 1497.0, 2669.0, 1564.0, 2686.0, 1594.0, 2704.0, 1604.0, 2721.0, 1523.0, 2702.0, 1583.0, 2680.0, 7653.0, 1541.0, 2700.0, 1538.0, 2689.0, 1633.0, 2699.0, 1500.0, 2715.0, 1629.0, 2725.0, 1519.0, 2714.0, 1601.0, 2671.0, 1619.0, 2697.0, 1491.0],
      "WindowWidth": [17090.0, 17116.0, 6499.0, 3998.0, 6524.0, 3943.0, 6430.0, 4155.0, 6481.0, 4091.0, 6509.0, 3971.0, 6536.0, 4153.0, 6479.0, 4180.0, 6450.0, 16881.0, 4040.0, 6536.0, 3944.0, 6430.0, 4064.0, 6505.0, 4027.0, 6466.0, 4085.0, 6424.0, 4185.0, 6515.0, 4145.0, 6571.0, 3978.0, 16811.0, 6419.0, 4031.0, 6497.0, 4156.0, 6420.0, 3984.0, 6424.0, 3998.0, 6374.0, 4008.0, 6527.0, 3945.0, 6430.0, 4197.0, 6521.0, 16826.0, 4033.0, 6438.0, 4061.0, 6434.0, 4240.0, 6516.0, 4017.0, 6483.0, 4039.0, 6569.0, 4049.0, 6436.0, 4122.0, 6467.0, 4032.0, 16762.0, 6396.0, 4085.0, 6525.0, 3917.0, 6394.0, 4051.0, 6447.0, 4088.0, 6476.0, 4158.0, 6517.0, 3993.0, 6478.0, 4097.0, 6424.0, 16776.0, 4006.0, 6463.0, 3997.0, 6459.0, 4217.0, 6463.0, 3931.0, 6489.0, 4169.0, 6506.0, 3980.0, 6504.0, 4144.0, 6407.0, 4192.0, 6462.0, 3911.0]
    },
    "slices": {}
  }
}