{
  "AcquisitionMatrixPE": 110,
  "AcquisitionNumber": 1,
  "AcquisitionTime": "10:49:15.750000",
  "BandwidthPerPixelPhaseEncode": 12.987,
  "BaseResolution": 110,
  "BodyPartExamined": "BRAIN",
  "ConsistencyInfo": "N4_VE11C_LATEST_20160120",
  "ConversionSoftware": "dcm2niix",
  "ConversionSoftwareVersion": "v1.0.20190902",
  "DerivedVendorReportedEchoSpacing": 0.000700001,
  "DeviceSerialNumber": "167006",
  "DiffusionScheme": "Monopolar",
  "DwellTime": 2.7e-06,
  "EchoTime": 0.0816,
  "EchoTrainLength": 83,
  "EffectiveEchoSpacing": 0.000700001,
  "FlipAngle": 78,
  "ImageComments": "Unaliased_MB3_PE3_LB_SENSE1",
  "ImageOrientationPatientDICOM": [1, 0, 0, 0, 0.838671, -0.544639],
  "ImageType": [
    "ORIGINAL",
    "PRIMARY",
    "DIFFUSION",
    "NONE",
    "MB",
    "ND",
    "MOSAIC"
],
  "ImagingFrequency": 123.259,
  "InPlanePhaseEncodingDirectionDICOM": "COL",
  "InstitutionAddress": "Chemin_Queen-Mary_4565_Montreal_District_CA_H3W_1W5",
  "InstitutionName": "IUGM",
  "InstitutionalDepartmentName": "Department",
  "MRAcquisitionType": "2D",
  "MagneticFieldStrength": 3,
  "Manufacturer": "Siemens",
  "ManufacturersModelName": "Prisma_fit",
  "Modality": "MR",
  "MultibandAccelerationFactor": 3,
  "PartialFourier": 0.75,
  "PatientPosition": "HFS",
  "PercentPhaseFOV": 100,
  "PhaseEncodingDirection": "j-",
  "PhaseEncodingSteps": 83,
  "PhaseResolution": 1,
  "PixelBandwidth": 1685,
  "ProcedureStepDescription": "neuromod_generic",
  "ProtocolName": "dMRI_dir98_AP_test_cmrr",
  "PulseSequenceDetails": "%CustomerSeq%_cmrr_mbep2d_diff",
  "ReceiveCoilActiveElements": "HC1-6",
  "ReceiveCoilName": "HeadNeck_64",
  "ReconMatrixPE": 110,
  "RepetitionTime": 2.334,
  "SAR": 0.136452,
  "ScanOptions": "PFP_EXT",
  "ScanningSequence": "EP",
  "SequenceName": "ep_b5#1",
  "SequenceVariant": "SK_SS",
  "SeriesDescription": "dMRI_dir98_AP_test_cmrr",
  "SeriesNumber": 7,
  "ShimSetting": [606, -7180, -8883, 337, -14, -178, 51, -10],
  "SliceThickness": 2,
  "SliceTiming": [0, 1.2175, 0.1225, 1.34, 0.245, 1.4625, 0.365, 1.585, 0.4875, 1.705, 0.61, 1.8275, 0.7325, 1.95, 0.8525, 2.07, 0.975, 2.1925, 1.0975, 0, 1.2175, 0.1225, 1.34, 0.245, 1.4625, 0.365, 1.585, 0.4875, 1.705, 0.61, 1.8275, 0.7325, 1.95, 0.8525, 2.07, 0.975, 2.1925, 1.0975, 0, 1.2175, 0.1225, 1.34, 0.245, 1.4625, 0.365, 1.585, 0.4875, 1.705, 0.61, 1.8275, 0.7325, 1.95, 0.8525, 2.07, 0.975, 2.1925, 1.0975],
  "SoftwareVersions": "syngo_MR_E11",
  "SpacingBetweenSlices": 2,
  "StationName": "MRC35049",
  "TotalReadoutTime": 0.0763001,
  "TxRefAmp": 249.919,
  "WipMemBlock": "153db65d-8586-44dd-b0a9-64380f237379||Sequence: R016 ve11c/master r/e634e98; Dec 19 2017 11:11:25 by eja",
  "dcmmeta_affine": [
    [-2.0, 0.0, 0.0, 109.49686431884766],
    [0.0, 1.677341103553772, -1.0892781019210815, -64.56400299072266],
    [0.0, 1.0892781019210815, 1.6773412227630615, -109.94928741455078],
    [0.0, 0.0, 0.0, 1.0]
],
  "dcmmeta_reorient_transform": [
    [0.0, -1.0, 0.0, 109.0],
    [1.0, 0.0, 0.0, 0.0],
    [0.0, 0.0, 1.0, 0.0],
    [0.0, 0.0, 0.0, 1.0]
],
  "dcmmeta_shape": [110, 110, 57, 99],
  "dcmmeta_slice_dim": 2,
  "dcmmeta_version": 0.6,
  "global": {
    "const": {
      "AcquisitionMatrix": [110, 0, 0, 110],
      "AngioFlag": "N",
      "BitsAllocated": 16,
      "BitsStored": 16,
      "BodyPartExamined": "BRAIN",
      "CardiacNumberOfImages": 1,
      "Columns": 880,
      "EchoNumbers": 1,
      "EchoTime": 81.6,
      "EchoTrainLength": 83,
      "FlipAngle": 78.0,
      "HighBit": 15,
      "ImageOrientationPatient": [1.0, 0.0, 0.0, 0.0, 0.83867056370374, -0.5446390415466],
      "ImagePositionPatient": [-879.49686384201, -764.04251289889, 428.1540835508],
      "ImageType": [
        "ORIGINAL",
        "PRIMARY",
        "DIFFUSION",
        "NONE",
        "MB",
        "ND",
        "MOSAIC"
],
      "ImagedNucleus": "1H",
      "ImagingFrequency": 123.25929,
      "InPlanePhaseEncodingDirection": "COL",
      "MRAcquisitionType": "2D",
      "MagneticFieldStrength": 3.0,
      "Manufacturer": "SIEMENS",
      "ManufacturerModelName": "Prisma_fit",
      "Modality": "MR",
      "NominalInterval": 0,
      "NumberOfAverages": 1.0,
      "NumberOfPhaseEncodingSteps": 83,
      "PercentPhaseFieldOfView": 100.0,
      "PercentSampling": 100.0,
      "PerformedProcedureStepStartTime": "102115.592000",
      "PhotometricInterpretation": "MONOCHROME2",
      "PixelBandwidth": 1685.0,
      "PixelRepresentation": 0,
      "PixelSpacing": [2.0, 2.0],
      "ProtocolName": "dMRI_dir98_AP_test_cmrr",
      "RepetitionTime": 2334.0,
      "Rows": 880,
      "SAR": 0.13645183695748,
      "SamplesPerPixel": 1,
      "ScanOptions": [
        "PFP",
        "EXT"
],
      "ScanningSequence": "EP",
      "SequenceVariant": [
        "SK",
        "SS"
],
      "SeriesDescription": "dMRI_dir98_AP_test_cmrr",
      "SeriesNumber": 7,
      "SeriesTime": "105020.515000",
      "SliceLocation": -57.04715532254,
      "SliceThickness": 2.0,
      "SmallestImagePixelValue": 0,
      "SoftwareVersions": "syngo MR E11",
      "SpacingBetweenSlices": 2.0000000523862,
      "SpecificCharacterSet": "ISO_IR 100",
      "StudyID": "1",
      "StudyTime": "102115.299000",
      "TransmitCoilName": "Body",
      "VariableFlipAngleFlag": "N",
      "WindowCenterWidthExplanation": "Algo1",
      "dBdt": 0.0},
    "slices": {}
  },
  "time": {
    "samples": {
      "AcquisitionNumber": [1, 2, 3, 4, 5, 6, 7, 8, 9, 10, 11, 12, 13, 14, 15, 16, 17, 18, 19, 20, 21, 22, 23, 24, 25, 26, 27, 28, 29, 30, 31, 32, 33, 34, 35, 36, 37, 38, 39, 40, 41, 42, 43, 44, 45, 46, 47, 48, 49, 50, 51, 52, 53, 54, 55, 56, 57, 58, 59, 60, 61, 62, 63, 64, 65, 66, 67, 68, 69, 70, 71, 72, 73, 74, 75, 76, 77, 78, 79, 80, 81, 82, 83, 84, 85, 86, 87, 88, 89, 90, 91, 92, 93, 94, 95, 96, 97, 98, 99],
      "AcquisitionTime": ["104915.750000", "104918.085000", "104920.420000", "104922.752500", "104925.087500", "104927.420000", "104929.755000", "104932.090000", "104934.422500", "104936.757500", "104939.090000", "104941.425000", "104943.760000", "104946.092500", "104948.427500", "104950.760000", "104953.095000", "104955.430000", "104957.762500", "105000.097500", "105002.430000", "105004.765000", "105007.100000", "105009.432500", "105011.767500", "105014.100000", "105016.435000", "105018.770000", "105021.102500", "105023.437500", "105025.770000", "105028.105000", "105030.440000", "105032.772500", "105035.107500", "105037.440000", "105039.775000", "105042.110000", "105044.442500", "105046.777500", "105049.110000", "105051.445000", "105053.780000", "105056.112500", "105058.447500", "105100.780000", "105103.115000", "105105.450000", "105107.782500", "105110.117500", "105112.450000", "105114.785000", "105117.120000", "105119.452500", "105121.787500", "105124.120000", "105126.455000", "105128.790000", "105131.122500", "105133.457500", "105135.790000", "105138.125000", "105140.460000", "105142.792500", "105145.127500", "105147.460000", "105149.795000", "105152.130000", "105154.462500", "105156.797500", "105159.130000", "105201.465000", "105203.800000", "105206.132500", "105208.467500", "105210.800000", "105213.135000", "105215.470000", "105217.802500", "105220.137500", "105222.470000", "105224.805000", "105227.140000", "105229.472500", "105231.807500", "105234.140000", "105236.475000", "105238.810000", "105241.142500", "105243.477500", "105245.810000", "105248.145000", "105250.480000", "105252.812500", "105255.147500", "105257.480000", "105259.815000", "105302.150000", "105304.482500"],
      "ContentTime": ["105020.518000", "105020.521000", "105020.525000", "105020.531000", "105020.534000", "105020.537000", "105020.540000", "105020.544000", "105020.547000", "105020.550000", "105020.553000", "105020.556000", "105020.559000", "105020.562000", "105020.565000", "105020.568000", "105020.571000", "105020.574000", "105020.577000", "105020.581000", "105020.584000", "105020.587000", "105020.590000", "105020.594000", "105020.597000", "105020.600000", "105020.603000", "105120.487000", "105120.490000", "105120.494000", "105120.497000", "105120.500000", "105120.503000", "105120.506000", "105120.509000", "105120.512000", "105120.515000", "105120.518000", "105120.521000", "105120.524000", "105120.527000", "105120.530000", "105120.533000", "105120.537000", "105120.540000", "105120.543000", "105120.546000", "105120.549000", "105120.552000", "105120.555000", "105120.558000", "105120.561000", "105120.564000", "105220.486000", "105220.489000", "105220.492000", "105220.495000", "105220.498000", "105220.501000", "105220.504000", "105220.507000", "105220.510000", "105220.514000", "105220.517000", "105220.520000", "105220.523000", "105220.531000", "105220.534000", "105220.537000", "105220.540000", "105220.543000", "105220.546000", "105220.549000", "105220.552000", "105220.556000", "105220.559000", "105220.562000", "105220.565000", "105309.660000", "105309.663000", "105309.666000", "105309.669000", "105309.672000", "105309.675000", "105309.678000", "105309.682000", "105309.685000", "105309.698000", "105309.701000", "105309.705000", "105309.708000", "105309.711000", "105309.714000", "105309.718000", "105309.721000", "105309.724000", "105309.728000", "105309.732000", "105309.735000"],
      "InstanceCreationTime": ["105020.518000", "105020.521000", "105020.525000", "105020.531000", "105020.534000", "105020.537000", "105020.540000", "105020.544000", "105020.547000", "105020.550000", "105020.553000", "105020.556000", "105020.559000", "105020.562000", "105020.565000", "105020.568000", "105020.571000", "105020.574000", "105020.577000", "105020.581000", "105020.584000", "105020.587000", "105020.590000", "105020.594000", "105020.597000", "105020.600000", "105020.603000", "105120.487000", "105120.490000", "105120.494000", "105120.497000", "105120.500000", "105120.503000", "105120.506000", "105120.509000", "105120.512000", "105120.515000", "105120.518000", "105120.521000", "105120.524000", "105120.527000", "105120.530000", "105120.533000", "105120.537000", "105120.540000", "105120.543000", "105120.546000", "105120.549000", "105120.552000", "105120.555000", "105120.558000", "105120.561000", "105120.564000", "105220.486000", "105220.489000", "105220.492000", "105220.495000", "105220.498000", "105220.501000", "105220.504000", "105220.507000", "105220.510000", "105220.514000", "105220.517000", "105220.520000", "105220.523000", "105220.531000", "105220.534000", "105220.537000", "105220.540000", "105220.543000", "105220.546000", "105220.549000", "105220.552000", "105220.556000", "105220.559000", "105220.562000", "105220.565000", "105309.660000", "105309.663000", "105309.666000", "105309.669000", "105309.672000", "105309.675000", "105309.678000", "105309.682000", "105309.685000", "105309.698000", "105309.701000", "105309.705000", "105309.708000", "105309.711000", "105309.714000", "105309.718000", "105309.721000", "105309.724000", "105309.728000", "105309.732000", "105309.735000"],
      "InstanceNumber": [1, 2, 3, 4, 5, 6, 7, 8, 9, 10, 11, 12, 13, 14, 15, 16, 17, 18, 19, 20, 21, 22, 23, 24, 25, 26, 27, 28, 29, 30, 31, 32, 33, 34, 35, 36, 37, 38, 39, 40, 41, 42, 43, 44, 45, 46, 47, 48, 49, 50, 51, 52, 53, 54, 55, 56, 57, 58, 59, 60, 61, 62, 63, 64, 65, 66, 67, 68, 69, 70, 71, 72, 73, 74, 75, 76, 77, 78, 79, 80, 81, 82, 83, 84, 85, 86, 87, 88, 89, 90, 91, 92, 93, 94, 95, 96, 97, 98, 99],
      "LargestImagePixelValue": [54092, 54329, 10884, 4629, 9067, 4987, 8337, 5569, 9275, 6213, 10473, 4523, 8353, 5082, 10417, 5756, 10193, 52979, 4834, 9453, 4443, 8101, 4569, 10106, 4550, 9862, 5531, 8718, 4750, 8133, 5354, 9639, 4489, 52893, 8971, 4735, 10952, 5983, 8672, 4298, 8487, 4839, 9208, 4618, 10147, 4506, 9508, 4861, 10276, 51030, 5807, 8162, 4468, 10992, 5058, 9097, 4247, 9474, 5438, 9703, 5222, 10470, 5778, 8224, 4438, 53494, 9551, 4682, 9032, 4245, 8745, 5235, 8895, 5786, 9673, 4568, 10128, 4108, 8621, 5374, 8745, 49501, 4339, 9446, 4413, 8603, 5447, 10269, 4216, 10833, 5998, 9721, 4483, 8512, 5186, 8633, 5102, 10295, 4522],
      "SequenceName": [
 "ep_b5#1",
 "ep_b5#1",
 "ep_b1490#2",
 "ep_b2990#3",
 "ep_b1495#4",
 "ep_b3005#5",
 "ep_b1505#6",
 "ep_b2985#7",
 "ep_b1495#8",
 "ep_b3005#9",
 "ep_b1490#10",
 "ep_b2990#11",
 "ep_b1495#12",
 "ep_b2990#13",
 "ep_b1500#14",
 "ep_b2985#15",
 "ep_b1500#16",
 "ep_b5#17",
 "ep_b3000#18",
 "ep_b1495#19",
 "ep_b3000#20",
 "ep_b1495#21",
 "ep_b2995#22",
 "ep_b1495#23",
 "ep_b3000#24",
 "ep_b1490#25",
 "ep_b2985#26",
 "ep_b1505#27",
 "ep_b2990#28",
 "ep_b1495#29",
 "ep_b3000#30",
 "ep_b1490#31",
 "ep_b3000#32",
 "ep_b5#33",
 "ep_b1505#34",
 "ep_b3000#35",
 "ep_b1490#36",
 "ep_b2985#37",
 "ep_b1495#38",
 "ep_b3000#39",
 "ep_b1500#40",
 "ep_b2995#41",
 "ep_b1505#42",
 "ep_b2990#43",
 "ep_b1495#44",
 "ep_b3000#45",
 "ep_b1495#46",
 "ep_b3000#47",
 "ep_b1490#48",
 "ep_b5#49",
 "ep_b3000#50",
 "ep_b1495#51",
 "ep_b2995#52",
 "ep_b1505#53",
 "ep_b2995#54",
 "ep_b1490#55",
 "ep_b2990#56",
 "ep_b1490#57",
 "ep_b3000#58",
 "ep_b1500#59",
 "ep_b3000#60",
 "ep_b1500#61",
 "ep_b2985#62",
 "ep_b1500#63",
 "ep_b2990#64",
 "ep_b5#65",
 "ep_b1505#66",
 "ep_b3000#67",
 "ep_b1495#68",
 "ep_b3000#69",
 "ep_b1505#70",
 "ep_b3005#71",
 "ep_b1500#72",
 "ep_b3005#73",
 "ep_b1495#74",
 "ep_b2990#75",
 "ep_b1495#76",
 "ep_b2995#77",
 "ep_b1500#78",
 "ep_b3000#79",
 "ep_b1490#80",
 "ep_b5#81",
 "ep_b2990#82",
 "ep_b1500#83",
 "ep_b2985#84",
 "ep_b1495#85",
 "ep_b2995#86",
 "ep_b1495#87",
 "ep_b2990#88",
 "ep_b1490#89",
 "ep_b2985#90",
 "ep_b1495#91",
 "ep_b2995#92",
 "ep_b1495#93",
 "ep_b3005#94",
 "ep_b1500#95",
 "ep_b2990#96",
 "ep_b1500#97",
 "ep_b2995#98"
],
      "TriggerTime": [13295.0, 15630.0, 17962.5, 20297.5, 22632.5, 24965.0, 27300.0, 29632.5, 31967.5, 34302.5, 36635.0, 38970.0, 41302.5, 43637.5, 45972.5, 48305.0, 50640.0, 52972.5, 55307.5, 57642.5, 59975.0, 62310.0, 64642.5, 66977.5, 69312.5, 71645.0, 73980.0, 76312.5, 78647.5, 80982.5, 83315.0, 85650.0, 87982.5, 90317.5, 92652.5, 94985.0, 97320.0, 99652.5, 101987.5, 104322.5, 106655.0, 108990.0, 111322.5, 113657.5, 115992.5, 118325.0, 120660.0, 122992.5, 125327.5, 127662.5, 129995.0, 132330.0, 134662.5, 136997.5, 139332.5, 141665.0, 144000.0, 146332.5, 148667.5, 151002.5, 153335.0, 155670.0, 158002.5, 160337.5, 162672.5, 165005.0, 167340.0, 169672.5, 172007.5, 174342.5, 176675.0, 179010.0, 181342.5, 183677.5, 186012.5, 188345.0, 190680.0, 193012.5, 195347.5, 197682.5, 200015.0, 202350.0, 204682.5, 207017.5, 209352.5, 211685.0, 214020.0, 216352.5, 218687.5, 221022.5, 223355.0, 225690.0, 228022.5, 230357.5, 232692.5, 235025.0, 237360.0, 239692.5, 242027.5],
      "WindowCenter": [7395.0, 7389.0, 2615.0, 1468.0, 2615.0, 1494.0, 2562.0, 1501.0, 2583.0, 1519.0, 2591.0, 1473.0, 2598.0, 1522.0, 2589.0, 1546.0, 2590.0, 7302.0, 1500.0, 2607.0, 1456.0, 2535.0, 1477.0, 2596.0, 1489.0, 2581.0, 1525.0, 2572.0, 1529.0, 2567.0, 1520.0, 2626.0, 1469.0, 7327.0, 2566.0, 1487.0, 2591.0, 1547.0, 2550.0, 1481.0, 2548.0, 1472.0, 2566.0, 1492.0, 2605.0, 1455.0, 2550.0, 1515.0, 2617.0, 7321.0, 1520.0, 2573.0, 1494.0, 2572.0, 1525.0, 2578.0, 1497.0, 2608.0, 1493.0, 2596.0, 1498.0, 2572.0, 1521.0, 2573.0, 1479.0, 7314.0, 2561.0, 1505.0, 2601.0, 1456.0, 2519.0, 1496.0, 2561.0, 1521.0, 2568.0, 1496.0, 2620.0, 1476.0, 2593.0, 1511.0, 2534.0, 7316.0, 1486.0, 2577.0, 1455.0, 2595.0, 1535.0, 2575.0, 1444.0, 2601.0, 1549.0, 2590.0, 1487.0, 2622.0, 1518.0, 2549.0, 1523.0, 2603.0, 1468.0],
      "WindowWidth": [16184.0, 16164.0, 6279.0, 3834.0, 6306.0, 3878.0, 6189.0, 3919.0, 6231.0, 3931.0, 6234.0, 3857.0, 6270.0, 3971.0, 6237.0, 4015.0, 6233.0, 15966.0, 3907.0, 6276.0, 3814.0, 6130.0, 3876.0, 6247.0, 3896.0, 6225.0, 3956.0, 6197.0, 4000.0, 6205.0, 3961.0, 6314.0, 3842.0, 16013.0, 6186.0, 3885.0, 6232.0, 3985.0, 6160.0, 3881.0, 6146.0, 3848.0, 6192.0, 3900.0, 6264.0, 3809.0, 6153.0, 3973.0, 6288.0, 16010.0, 3932.0, 6196.0, 3913.0, 6189.0, 3986.0, 6218.0, 3919.0, 6274.0, 3887.0, 6253.0, 3905.0, 6199.0, 3936.0, 6206.0, 3885.0, 15982.0, 6174.0, 3927.0, 6268.0, 3815.0, 6090.0, 3894.0, 6187.0, 3933.0, 6197.0, 3926.0, 6297.0, 3868.0, 6246.0, 3936.0, 6130.0, 15993.0, 3876.0, 6210.0, 3813.0, 6255.0, 4000.0, 6204.0, 3792.0, 6253.0, 3998.0, 6237.0, 3883.0, 6309.0, 3959.0, 6164.0, 3979.0, 6264.0, 3835.0]
    },
    "slices": {}
  }
}