{
  "AcquisitionMatrixPE": 110,
  "AcquisitionNumber": 1,
  "AcquisitionTime": "10:53:26.377500",
  "BandwidthPerPixelPhaseEncode": 12.987,
  "BaseResolution": 110,
  "BodyPartExamined": "BRAIN",
  "ConsistencyInfo": "N4_VE11C_LATEST_20160120",
  "ConversionSoftware": "dcm2niix",
  "ConversionSoftwareVersion": "v1.0.20190902",
  "DerivedVendorReportedEchoSpacing": 0.000700001,
  "DeviceSerialNumber": "167006",
  "DiffusionScheme": "Monopolar",
  "DwellTime": 2.7e-06,
  "EchoTime": 0.0816,
  "EchoTrainLength": 83,
  "EffectiveEchoSpacing": 0.000700001,
  "FlipAngle": 78,
  "ImageComments": "Unaliased_MB3_PE3_LB_SENSE1",
  "ImageOrientationPatientDICOM": [1, 0, 0, 0, 0.838671, -0.544639],
  "ImageType": [
    "ORIGINAL",
    "PRIMARY",
    "DIFFUSION",
    "NONE",
    "MB",
    "ND",
    "MOSAIC"
],
  "ImagingFrequency": 123.259,
  "InPlanePhaseEncodingDirectionDICOM": "COL",
  "InstitutionAddress": "Chemin_Queen-Mary_4565_Montreal_District_CA_H3W_1W5",
  "InstitutionName": "IUGM",
  "InstitutionalDepartmentName": "Department",
  "MRAcquisitionType": "2D",
  "MagneticFieldStrength": 3,
  "Manufacturer": "Siemens",
  "ManufacturersModelName": "Prisma_fit",
  "Modality": "MR",
  "MultibandAccelerationFactor": 3,
  "PartialFourier": 0.75,
  "PatientPosition": "HFS",
  "PercentPhaseFOV": 100,
  "PhaseEncodingDirection": "j",
  "PhaseEncodingSteps": 83,
  "PhaseResolution": 1,
  "PixelBandwidth": 1685,
  "ProcedureStepDescription": "neuromod_generic",
  "ProtocolName": "dMRI_dir98_PA_test_cmrr",
  "PulseSequenceDetails": "%CustomerSeq%_cmrr_mbep2d_diff",
  "ReceiveCoilActiveElements": "HC1-6",
  "ReceiveCoilName": "HeadNeck_64",
  "ReconMatrixPE": 110,
  "RepetitionTime": 2.334,
  "SAR": 0.136452,
  "ScanOptions": "PFP_EXT",
  "ScanningSequence": "EP",
  "SequenceName": "ep_b5#1",
  "SequenceVariant": "SK_SS",
  "SeriesDescription": "dMRI_dir98_PA_test_cmrr",
  "SeriesNumber": 11,
  "ShimSetting": [606, -7180, -8883, 337, -14, -178, 51, -10],
  "SliceThickness": 2,
  "SliceTiming": [0, 1.2175, 0.1225, 1.34, 0.245, 1.4625, 0.365, 1.5825, 0.4875, 1.705, 0.61, 1.8275, 0.73, 1.95, 0.8525, 2.07, 0.975, 2.1925, 1.0975, 0, 1.2175, 0.1225, 1.34, 0.245, 1.4625, 0.365, 1.5825, 0.4875, 1.705, 0.61, 1.8275, 0.73, 1.95, 0.8525, 2.07, 0.975, 2.1925, 1.0975, 0, 1.2175, 0.1225, 1.34, 0.245, 1.4625, 0.365, 1.5825, 0.4875, 1.705, 0.61, 1.8275, 0.73, 1.95, 0.8525, 2.07, 0.975, 2.1925, 1.0975],
  "SoftwareVersions": "syngo_MR_E11",
  "SpacingBetweenSlices": 2,
  "StationName": "MRC35049",
  "TotalReadoutTime": 0.0763001,
  "TxRefAmp": 249.919,
  "WipMemBlock": "8ad05892-4bb2-4cf0-b26a-28f19811f222||Sequence: R016 ve11c/master r/e634e98; Dec 19 2017 11:11:25 by eja",
  "dcmmeta_affine": [
    [-2.0, 0.0, 0.0, 109.49686431884766],
    [0.0, 1.677341103553772, -1.0892781019210815, -64.56400299072266],
    [0.0, 1.0892781019210815, 1.6773412227630615, -109.94928741455078],
    [0.0, 0.0, 0.0, 1.0]
],
  "dcmmeta_reorient_transform": [
    [0.0, -1.0, 0.0, 109.0],
    [1.0, 0.0, 0.0, 0.0],
    [0.0, 0.0, 1.0, 0.0],
    [0.0, 0.0, 0.0, 1.0]
],
  "dcmmeta_shape": [110, 110, 57, 99],
  "dcmmeta_slice_dim": 2,
  "dcmmeta_version": 0.6,
  "global": {
    "const": {
      "AcquisitionMatrix": [110, 0, 0, 110],
      "AngioFlag": "N",
      "BitsAllocated": 16,
      "BitsStored": 16,
      "BodyPartExamined": "BRAIN",
      "CardiacNumberOfImages": 1,
      "Columns": 880,
      "EchoNumbers": 1,
      "EchoTime": 81.6,
      "EchoTrainLength": 83,
      "FlipAngle": 78.0,
      "HighBit": 15,
      "ImageOrientationPatient": [1.0, 0.0, 0.0, 0.0, 0.83867056370374, -0.5446390415466],
      "ImagePositionPatient": [-879.49686384201, -764.04251289889, 428.1540835508],
      "ImageType": [
        "ORIGINAL",
        "PRIMARY",
        "DIFFUSION",
        "NONE",
        "MB",
        "ND",
        "MOSAIC"
],
      "ImagedNucleus": "1H",
      "ImagingFrequency": 123.259295,
      "InPlanePhaseEncodingDirection": "COL",
      "MRAcquisitionType": "2D",
      "MagneticFieldStrength": 3.0,
      "Manufacturer": "SIEMENS",
      "ManufacturerModelName": "Prisma_fit",
      "Modality": "MR",
      "NominalInterval": 0,
      "NumberOfAverages": 1.0,
      "NumberOfPhaseEncodingSteps": 83,
      "PercentPhaseFieldOfView": 100.0,
      "PercentSampling": 100.0,
      "PerformedProcedureStepStartTime": "102115.592000",
      "PhotometricInterpretation": "MONOCHROME2",
      "PixelBandwidth": 1685.0,
      "PixelRepresentation": 0,
      "PixelSpacing": [2.0, 2.0],
      "ProtocolName": "dMRI_dir98_PA_test_cmrr",
      "RepetitionTime": 2334.0,
      "Rows": 880,
      "SAR": 0.13645183695748,
      "SamplesPerPixel": 1,
      "ScanOptions": [
        "PFP",
        "EXT"
],
      "ScanningSequence": "EP",
      "SequenceVariant": [
        "SK",
        "SS"
],
      "SeriesDescription": "dMRI_dir98_PA_test_cmrr",
      "SeriesNumber": 11,
      "SeriesTime": "105420.451000",
      "SliceLocation": -57.04715532254,
      "SliceThickness": 2.0,
      "SmallestImagePixelValue": 0,
      "SoftwareVersions": "syngo MR E11",
      "SpacingBetweenSlices": 2.0000000523862,
      "SpecificCharacterSet": "ISO_IR 100",
      "StudyID": "1",
      "StudyTime": "102115.299000",
      "TransmitCoilName": "Body",
      "VariableFlipAngleFlag": "N",
      "WindowCenterWidthExplanation": "Algo1",
      "dBdt": 0.0},
    "slices": {}
  },
  "time": {
    "samples": {
      "AcquisitionNumber": [1, 2, 3, 4, 5, 6, 7, 8, 9, 10, 11, 12, 13, 14, 15, 16, 17, 18, 19, 20, 21, 22, 23, 24, 25, 26, 27, 28, 29, 30, 31, 32, 33, 34, 35, 36, 37, 38, 39, 40, 41, 42, 43, 44, 45, 46, 47, 48, 49, 50, 51, 52, 53, 54, 55, 56, 57, 58, 59, 60, 61, 62, 63, 64, 65, 66, 67, 68, 69, 70, 71, 72, 73, 74, 75, 76, 77, 78, 79, 80, 81, 82, 83, 84, 85, 86, 87, 88, 89, 90, 91, 92, 93, 94, 95, 96, 97, 98, 99],
      "AcquisitionTime": ["105326.377500", "105328.712500", "105331.045000", "105333.380000", "105335.715000", "105338.047500", "105340.382500", "105342.715000", "105345.050000", "105347.385000", "105349.717500", "105352.052500", "105354.385000", "105356.720000", "105359.055000", "105401.387500", "105403.722500", "105406.055000", "105408.390000", "105410.725000", "105413.057500", "105415.392500", "105417.725000", "105420.060000", "105422.395000", "105424.727500", "105427.062500", "105429.395000", "105431.730000", "105434.065000", "105436.397500", "105438.732500", "105441.065000", "105443.400000", "105445.735000", "105448.067500", "105450.402500", "105452.735000", "105455.070000", "105457.405000", "105459.737500", "105502.072500", "105504.405000", "105506.740000", "105509.075000", "105511.407500", "105513.742500", "105516.075000", "105518.410000", "105520.745000", "105523.077500", "105525.412500", "105527.745000", "105530.080000", "105532.415000", "105534.747500", "105537.082500", "105539.415000", "105541.750000", "105544.085000", "105546.417500", "105548.752500", "105551.085000", "105553.420000", "105555.755000", "105558.087500", "105600.422500", "105602.755000", "105605.090000", "105607.425000", "105609.757500", "105612.092500", "105614.425000", "105616.760000", "105619.095000", "105621.427500", "105623.762500", "105626.095000", "105628.430000", "105630.765000", "105633.097500", "105635.432500", "105637.765000", "105640.100000", "105642.435000", "105644.767500", "105647.102500", "105649.435000", "105651.770000", "105654.105000", "105656.437500", "105658.772500", "105701.105000", "105703.440000", "105705.775000", "105708.107500", "105710.442500", "105712.775000", "105715.110000"],
      "ContentTime": ["105420.455000", "105420.458000", "105420.461000", "105420.464000", "105420.468000", "105420.471000", "105420.474000", "105420.477000", "105420.480000", "105420.483000", "105420.486000", "105420.489000", "105420.493000", "105420.496000", "105420.499000", "105420.509000", "105420.513000", "105420.516000", "105420.519000", "105420.522000", "105420.531000", "105420.534000", "105420.537000", "105520.417000", "105520.420000", "105520.423000", "105520.427000", "105520.430000", "105520.442000", "105520.445000", "105520.448000", "105520.451000", "105520.454000", "105520.457000", "105520.460000", "105520.463000", "105520.466000", "105520.469000", "105520.479000", "105520.482000", "105520.485000", "105520.488000", "105520.491000", "105520.494000", "105520.497000", "105520.500000", "105520.503000", "105520.506000", "105620.417000", "105620.420000", "105620.423000", "105620.426000", "105620.429000", "105620.433000", "105620.441000", "105620.444000", "105620.447000", "105620.450000", "105620.453000", "105620.456000", "105620.459000", "105620.462000", "105620.465000", "105620.468000", "105620.471000", "105620.483000", "105620.486000", "105620.489000", "105620.492000", "105620.495000", "105620.498000", "105620.501000", "105620.504000", "105620.507000", "105719.889000", "105719.893000", "105719.896000", "105719.899000", "105719.902000", "105719.905000", "105719.915000", "105719.918000", "105719.921000", "105719.924000", "105719.927000", "105719.930000", "105719.933000", "105719.936000", "105719.939000", "105719.942000", "105719.945000", "105719.948000", "105719.951000", "105719.954000", "105719.958000", "105719.961000", "105719.964000", "105719.967000", "105719.970000"],
      "InstanceCreationTime": ["105420.455000", "105420.458000", "105420.461000", "105420.464000", "105420.468000", "105420.471000", "105420.474000", "105420.477000", "105420.480000", "105420.483000", "105420.486000", "105420.489000", "105420.493000", "105420.496000", "105420.499000", "105420.509000", "105420.513000", "105420.516000", "105420.519000", "105420.522000", "105420.531000", "105420.534000", "105420.537000", "105520.417000", "105520.420000", "105520.423000", "105520.427000", "105520.430000", "105520.442000", "105520.445000", "105520.448000", "105520.451000", "105520.454000", "105520.457000", "105520.460000", "105520.463000", "105520.466000", "105520.469000", "105520.479000", "105520.482000", "105520.485000", "105520.488000", "105520.491000", "105520.494000", "105520.497000", "105520.500000", "105520.503000", "105520.506000", "105620.417000", "105620.420000", "105620.423000", "105620.426000", "105620.429000", "105620.433000", "105620.441000", "105620.444000", "105620.447000", "105620.450000", "105620.453000", "105620.456000", "105620.459000", "105620.462000", "105620.465000", "105620.468000", "105620.471000", "105620.483000", "105620.486000", "105620.489000", "105620.492000", "105620.495000", "105620.498000", "105620.501000", "105620.504000", "105620.507000", "105719.889000", "105719.893000", "105719.896000", "105719.899000", "105719.902000", "105719.905000", "105719.915000", "105719.918000", "105719.921000", "105719.924000", "105719.927000", "105719.930000", "105719.933000", "105719.936000", "105719.939000", "105719.942000", "105719.945000", "105719.948000", "105719.951000", "105719.954000", "105719.958000", "105719.961000", "105719.964000", "105719.967000", "105719.970000"],
      "InstanceNumber": [1, 2, 3, 4, 5, 6, 7, 8, 9, 10, 11, 12, 13, 14, 15, 16, 17, 18, 19, 20, 21, 22, 23, 24, 25, 26, 27, 28, 29, 30, 31, 32, 33, 34, 35, 36, 37, 38, 39, 40, 41, 42, 43, 44, 45, 46, 47, 48, 49, 50, 51, 52, 53, 54, 55, 56, 57, 58, 59, 60, 61, 62, 63, 64, 65, 66, 67, 68, 69, 70, 71, 72, 73, 74, 75, 76, 77, 78, 79, 80, 81, 82, 83, 84, 85, 86, 87, 88, 89, 90, 91, 92, 93, 94, 95, 96, 97, 98, 99],
      "LargestImagePixelValue": [54254, 53915, 15871, 7420, 16357, 7916, 15648, 7578, 16494, 8580, 17927, 7370, 16073, 7185, 14694, 7698, 16246, 54408, 8390, 15354, 6302, 15745, 8188, 16705, 7077, 16423, 8906, 16832, 7491, 15994, 10256, 16779, 7900, 52391, 15587, 6958, 16023, 8449, 16050, 6942, 17695, 7100, 16604, 7052, 16562, 6882, 16473, 8092, 16961, 53724, 8575, 16297, 6654, 15366, 7781, 16535, 7071, 16526, 7664, 16589, 7525, 16222, 9055, 14807, 6807, 53530, 17014, 7126, 16251, 6583, 17315, 8300, 15846, 8040, 16715, 7092, 15194, 7201, 15627, 8598, 15621, 51901, 7376, 16301, 7712, 15082, 7622, 17380, 6464, 16151, 9339, 17300, 7491, 15314, 8422, 15448, 7861, 15750, 7748],
      "SequenceName": [
 "ep_b5#1",
 "ep_b5#1",
 "ep_b1490#2",
 "ep_b2990#3",
 "ep_b1495#4",
 "ep_b3005#5",
 "ep_b1505#6",
 "ep_b2985#7",
 "ep_b1495#8",
 "ep_b3005#9",
 "ep_b1490#10",
 "ep_b2990#11",
 "ep_b1495#12",
 "ep_b2990#13",
 "ep_b1500#14",
 "ep_b2985#15",
 "ep_b1500#16",
 "ep_b5#17",
 "ep_b3000#18",
 "ep_b1495#19",
 "ep_b3000#20",
 "ep_b1495#21",
 "ep_b2995#22",
 "ep_b1495#23",
 "ep_b3000#24",
 "ep_b1490#25",
 "ep_b2985#26",
 "ep_b1505#27",
 "ep_b2990#28",
 "ep_b1495#29",
 "ep_b3000#30",
 "ep_b1490#31",
 "ep_b3000#32",
 "ep_b5#33",
 "ep_b1505#34",
 "ep_b3000#35",
 "ep_b1490#36",
 "ep_b2985#37",
 "ep_b1495#38",
 "ep_b3000#39",
 "ep_b1500#40",
 "ep_b2995#41",
 "ep_b1505#42",
 "ep_b2990#43",
 "ep_b1495#44",
 "ep_b3000#45",
 "ep_b1495#46",
 "ep_b3000#47",
 "ep_b1490#48",
 "ep_b5#49",
 "ep_b3000#50",
 "ep_b1495#51",
 "ep_b2995#52",
 "ep_b1505#53",
 "ep_b2995#54",
 "ep_b1490#55",
 "ep_b2990#56",
 "ep_b1490#57",
 "ep_b3000#58",
 "ep_b1500#59",
 "ep_b3000#60",
 "ep_b1500#61",
 "ep_b2985#62",
 "ep_b1500#63",
 "ep_b2990#64",
 "ep_b5#65",
 "ep_b1505#66",
 "ep_b3000#67",
 "ep_b1495#68",
 "ep_b3000#69",
 "ep_b1505#70",
 "ep_b3005#71",
 "ep_b1500#72",
 "ep_b3005#73",
 "ep_b1495#74",
 "ep_b2990#75",
 "ep_b1495#76",
 "ep_b2995#77",
 "ep_b1500#78",
 "ep_b3000#79",
 "ep_b1490#80",
 "ep_b5#81",
 "ep_b2990#82",
 "ep_b1500#83",
 "ep_b2985#84",
 "ep_b1495#85",
 "ep_b2995#86",
 "ep_b1495#87",
 "ep_b2990#88",
 "ep_b1490#89",
 "ep_b2985#90",
 "ep_b1495#91",
 "ep_b2995#92",
 "ep_b1495#93",
 "ep_b3005#94",
 "ep_b1500#95",
 "ep_b2990#96",
 "ep_b1500#97",
 "ep_b2995#98"
],
      "TriggerTime": [13297.5, 15632.5, 17965.0, 20300.0, 22632.5, 24967.5, 27302.5, 29635.0, 31970.0, 34302.5, 36637.5, 38972.5, 41305.0, 43640.0, 45972.5, 48307.5, 50642.5, 52975.0, 55310.0, 57642.5, 59977.5, 62312.5, 64645.0, 66980.0, 69312.5, 71647.5, 73982.5, 76315.0, 78650.0, 80982.5, 83317.5, 85652.5, 87985.0, 90320.0, 92652.5, 94987.5, 97322.5, 99655.0, 101990.0, 104322.5, 106657.5, 108992.5, 111325.0, 113660.0, 115992.5, 118327.5, 120662.5, 122995.0, 125330.0, 127662.5, 129997.5, 132332.5, 134665.0, 137000.0, 139332.5, 141667.5, 144002.5, 146335.0, 148670.0, 151002.5, 153337.5, 155672.5, 158005.0, 160340.0, 162672.5, 165007.5, 167342.5, 169675.0, 172010.0, 174342.5, 176677.5, 179012.5, 181345.0, 183680.0, 186012.5, 188347.5, 190682.5, 193015.0, 195350.0, 197682.5, 200017.5, 202352.5, 204685.0, 207020.0, 209352.5, 211687.5, 214022.5, 216355.0, 218690.0, 221022.5, 223357.5, 225692.5, 228025.0, 230360.0, 232692.5, 235027.5, 237362.5, 239695.0, 242030.0],
      "WindowCenter": [7463.0, 7457.0, 2776.0, 1616.0, 2742.0, 1637.0, 2749.0, 1668.0, 2771.0, 1647.0, 2786.0, 1645.0, 2768.0, 1645.0, 2730.0, 1658.0, 2734.0, 7446.0, 1662.0, 2787.0, 1577.0, 2788.0, 1678.0, 2787.0, 1649.0, 2742.0, 1646.0, 2744.0, 1648.0, 2739.0, 1674.0, 2772.0, 1647.0, 7408.0, 2748.0, 1612.0, 2787.0, 1651.0, 2750.0, 1631.0, 2813.0, 1619.0, 2729.0, 1639.0, 2799.0, 1591.0, 2809.0, 1674.0, 2775.0, 7384.0, 1666.0, 2802.0, 1613.0, 2751.0, 1674.0, 2754.0, 1634.0, 2783.0, 1605.0, 2789.0, 1628.0, 2756.0, 1675.0, 2737.0, 1612.0, 7426.0, 2749.0, 1641.0, 2772.0, 1588.0, 2782.0, 1665.0, 2761.0, 1636.0, 2775.0, 1627.0, 2750.0, 1659.0, 2753.0, 1630.0, 2742.0, 7351.0, 1636.0, 2749.0, 1619.0, 2730.0, 1674.0, 2781.0, 1596.0, 2738.0, 1664.0, 2769.0, 1634.0, 2750.0, 1666.0, 2726.0, 1657.0, 2719.0, 1646.0],
      "WindowWidth": [16182.0, 16180.0, 6617.0, 4142.0, 6532.0, 4206.0, 6538.0, 4271.0, 6596.0, 4216.0, 6640.0, 4209.0, 6584.0, 4233.0, 6514.0, 4258.0, 6533.0, 16132.0, 4247.0, 6630.0, 4069.0, 6620.0, 4287.0, 6629.0, 4223.0, 6545.0, 4209.0, 6557.0, 4244.0, 6527.0, 4269.0, 6597.0, 4217.0, 16067.0, 6575.0, 4157.0, 6637.0, 4232.0, 6544.0, 4175.0, 6668.0, 4161.0, 6517.0, 4209.0, 6652.0, 4096.0, 6667.0, 4293.0, 6611.0, 16001.0, 4268.0, 6643.0, 4160.0, 6583.0, 4291.0, 6556.0, 4187.0, 6619.0, 4128.0, 6629.0, 4194.0, 6572.0, 4271.0, 6509.0, 4159.0, 16097.0, 6579.0, 4218.0, 6593.0, 4085.0, 6626.0, 4263.0, 6558.0, 4199.0, 6613.0, 4189.0, 6568.0, 4233.0, 6558.0, 4177.0, 6540.0, 15942.0, 4197.0, 6560.0, 4159.0, 6519.0, 4295.0, 6615.0, 4115.0, 6550.0, 4256.0, 6584.0, 4187.0, 6537.0, 4261.0, 6503.0, 4254.0, 6508.0, 4214.0]
    },
    "slices": {}
  }
}