{
  "AcquisitionMatrixPE": 110,
  "AcquisitionNumber": 1,
  "AcquisitionTime": "13:24:51.135000",
  "BandwidthPerPixelPhaseEncode": 12.987,
  "BaseResolution": 110,
  "BodyPartExamined": "BRAIN",
  "CoilCombinationMethod": "Sum of Squares",
  "ConsistencyInfo": "N4_VE11C_LATEST_20160120",
  "ConversionSoftware": "dcm2niix",
  "ConversionSoftwareVersion": "v1.0.20211006",
  "DerivedVendorReportedEchoSpacing": 0.000700001,
  "DeviceSerialNumber": "167006",
  "DiffusionScheme": "Monopolar",
  "DwellTime": 2.7e-06,
  "EchoTime": 0.0816,
  "EchoTrainLength": 83,
  "EffectiveEchoSpacing": 0.000700001,
  "FlipAngle": 78,
  "HeudiconvVersion": "0.5.3.post569+g418601f",
  "ImageComments": "Unaliased MB3/PE3/LB SENSE1",
  "ImageOrientationPatientDICOM": [1, 0, 0, 0, 0.978148, -0.207912],
  "ImageOrientationText": "Tra>Cor(-12.0)",
  "ImageType": [
    "ORIGINAL",
    "PRIMARY",
    "DIFFUSION",
    "NONE",
    "MB",
    "ND",
    "MOSAIC"
],
  "ImagingFrequency": 123.259,
  "InPlanePhaseEncodingDirectionDICOM": "COL",
  "InstitutionAddress": "Chemin Queen-Mary 4565,Montreal,District,CA,H3W 1W5",
  "InstitutionName": "IUGM",
  "InstitutionalDepartmentName": "Department",
  "MRAcquisitionType": "2D",
  "MagneticFieldStrength": 3,
  "Manufacturer": "Siemens",
  "ManufacturersModelName": "Prisma_fit",
  "MatrixCoilMode": "SENSE",
  "Modality": "MR",
  "MultibandAccelerationFactor": 3,
  "PartialFourier": 0.75,
  "PatientPosition": "HFS",
  "PercentPhaseFOV": 100,
  "PercentSampling": 100,
  "PhaseEncodingDirection": "j",
  "PhaseEncodingSteps": 83,
  "PhaseResolution": 1,
  "PixelBandwidth": 1685,
  "ProcedureStepDescription": "anat^generic",
  "ProtocolName": "dMRI_dir98_PA_test_cmrr",
  "PulseSequenceDetails": "%CustomerSeq%\\cmrr_mbep2d_diff",
  "ReceiveCoilActiveElements": "HC1-6",
  "ReceiveCoilName": "HeadNeck_64",
  "ReconMatrixPE": 110,
  "RepetitionTime": 2.334,
  "SAR": 0.138641,
  "ScanOptions": "PFP\\EXT",
  "ScanningSequence": "EP",
  "SequenceName": "ep_b5#1",
  "SequenceVariant": "SK\\SS",
  "SeriesDescription": "dMRI_dir98_PA_test_cmrr",
  "SeriesNumber": 11,
  "ShimSetting": [597, -7244, -8852, 608, -73, -264, 11, 71],
  "SliceThickness": 2,
  "SliceTiming": [0, 1.22, 0.1225, 1.34, 0.245, 1.4625, 0.3675, 1.585, 0.4875, 1.705, 0.61, 1.8275, 0.7325, 1.95, 0.8525, 2.0725, 0.975, 2.1925, 1.0975, 0, 1.22, 0.1225, 1.34, 0.245, 1.4625, 0.3675, 1.585, 0.4875, 1.705, 0.61, 1.8275, 0.7325, 1.95, 0.8525, 2.0725, 0.975, 2.1925, 1.0975, 0, 1.22, 0.1225, 1.34, 0.245, 1.4625, 0.3675, 1.585, 0.4875, 1.705, 0.61, 1.8275, 0.7325, 1.95, 0.8525, 2.0725, 0.975, 2.1925, 1.0975],
  "SoftwareVersions": "syngo MR E11",
  "SpacingBetweenSlices": 2,
  "StationName": "MRC35049",
  "TotalReadoutTime": 0.0763001,
  "TxRefAmp": 217.38,
  "WipMemBlock": "8394e435-50f5-40ce-bc53-b86791dcc75f||Sequence: R016 ve11c/master r/e634e98; Dec 19 2017 11:11:25 by eja",
  "dcmmeta_affine": [
    [-2.0, 0.0, 0.0, 109.49686431884766],
    [0.0, 1.9562952518463135, -0.415823370218277, -87.49837493896484],
    [0.0, 0.415823370218277, 1.956295132637024, -61.07993698120117],
    [0.0, 0.0, 0.0, 1.0]
],
  "dcmmeta_reorient_transform": [
    [0.0, -1.0, 0.0, 109.0],
    [1.0, 0.0, 0.0, 0.0],
    [0.0, 0.0, 1.0, 0.0],
    [0.0, 0.0, 0.0, 1.0]
],
  "dcmmeta_shape": [110, 110, 57, 99],
  "dcmmeta_slice_dim": 2,
  "dcmmeta_version": 0.6,
  "global": {
    "const": {
      "AcquisitionMatrix": [110, 0, 0, 110],
      "AngioFlag": "N",
      "BitsAllocated": 16,
      "BitsStored": 16,
      "BodyPartExamined": "BRAIN",
      "CardiacNumberOfImages": 1,
      "Columns": 880,
      "EchoNumbers": 1,
      "EchoTime": 81.6,
      "EchoTrainLength": 83,
      "FlipAngle": 78.0,
      "HighBit": 15,
      "ImageOrientationPatient": [1.0, 0.0, 0.0, 0.0, 0.97814760155, -0.2079116869779],
      "ImagePositionPatient": [-879.49686384201, -878.91145277953, 144.33681151808],
      "ImageType": [
        "ORIGINAL",
        "PRIMARY",
        "DIFFUSION",
        "NONE",
        "MB",
        "ND",
        "MOSAIC"
],
      "ImagedNucleus": "1H",
      "ImagingFrequency": 123.25903,
      "InPlanePhaseEncodingDirection": "COL",
      "MRAcquisitionType": "2D",
      "MagneticFieldStrength": 3.0,
      "Manufacturer": "SIEMENS",
      "ManufacturerModelName": "Prisma_fit",
      "Modality": "MR",
      "NominalInterval": 0,
      "NumberOfAverages": 1.0,
      "NumberOfPhaseEncodingSteps": 83,
      "PercentPhaseFieldOfView": 100.0,
      "PercentSampling": 100.0,
      "PerformedProcedureStepStartTime": "125226.531000",
      "PhotometricInterpretation": "MONOCHROME2",
      "PixelBandwidth": 1685.0,
      "PixelRepresentation": 0,
      "PixelSpacing": [2.0, 2.0],
      "ProtocolName": "dMRI_dir98_PA_test_cmrr",
      "RepetitionTime": 2334.0,
      "Rows": 880,
      "SAR": 0.13864098251167,
      "SamplesPerPixel": 1,
      "ScanOptions": [
        "PFP",
        "EXT"
],
      "ScanningSequence": "EP",
      "SequenceVariant": [
        "SK",
        "SS"
],
      "SeriesDescription": "dMRI_dir98_PA_test_cmrr",
      "SeriesNumber": 11,
      "SeriesTime": "132540.053000",
      "SliceLocation": -41.553256849793,
      "SliceThickness": 2.0,
      "SmallestImagePixelValue": 0,
      "SoftwareVersions": "syngo MR E11",
      "SpacingBetweenSlices": 1.999999949613,
      "SpecificCharacterSet": "ISO_IR 100",
      "StudyID": "1",
      "StudyTime": "125226.430000",
      "TransmitCoilName": "Body",
      "VariableFlipAngleFlag": "N",
      "WindowCenterWidthExplanation": "Algo1",
      "dBdt": 0.0},
    "slices": {}
  },
  "time": {
    "samples": {
      "AcquisitionNumber": [1, 2, 3, 4, 5, 6, 7, 8, 9, 10, 11, 12, 13, 14, 15, 16, 17, 18, 19, 20, 21, 22, 23, 24, 25, 26, 27, 28, 29, 30, 31, 32, 33, 34, 35, 36, 37, 38, 39, 40, 41, 42, 43, 44, 45, 46, 47, 48, 49, 50, 51, 52, 53, 54, 55, 56, 57, 58, 59, 60, 61, 62, 63, 64, 65, 66, 67, 68, 69, 70, 71, 72, 73, 74, 75, 76, 77, 78, 79, 80, 81, 82, 83, 84, 85, 86, 87, 88, 89, 90, 91, 92, 93, 94, 95, 96, 97, 98, 99],
      "AcquisitionTime": ["132451.135000", "132453.470000", "132455.805000", "132458.137500", "132500.472500", "132502.805000", "132505.140000", "132507.475000", "132509.807500", "132512.142500", "132514.475000", "132516.810000", "132519.145000", "132521.477500", "132523.812500", "132526.145000", "132528.480000", "132530.815000", "132533.147500", "132535.482500", "132537.815000", "132540.150000", "132542.485000", "132544.817500", "132547.152500", "132549.485000", "132551.820000", "132554.155000", "132556.487500", "132558.822500", "132601.155000", "132603.490000", "132605.825000", "132608.157500", "132610.492500", "132612.825000", "132615.160000", "132617.495000", "132619.827500", "132622.162500", "132624.495000", "132626.830000", "132629.165000", "132631.497500", "132633.832500", "132636.165000", "132638.500000", "132640.835000", "132643.167500", "132645.502500", "132647.835000", "132650.170000", "132652.505000", "132654.837500", "132657.172500", "132659.505000", "132701.840000", "132704.175000", "132706.507500", "132708.842500", "132711.175000", "132713.510000", "132715.845000", "132718.177500", "132720.512500", "132722.845000", "132725.180000", "132727.515000", "132729.847500", "132732.182500", "132734.515000", "132736.850000", "132739.185000", "132741.517500", "132743.852500", "132746.185000", "132748.520000", "132750.855000", "132753.187500", "132755.522500", "132757.855000", "132800.190000", "132802.525000", "132804.857500", "132807.192500", "132809.525000", "132811.860000", "132814.195000", "132816.527500", "132818.862500", "132821.195000", "132823.530000", "132825.865000", "132828.197500", "132830.532500", "132832.865000", "132835.200000", "132837.535000", "132839.867500"],
      "ContentTime": ["132540.056000", "132540.060000", "132540.063000", "132540.066000", "132540.071000", "132540.074000", "132540.077000", "132540.080000", "132540.083000", "132540.086000", "132540.090000", "132540.093000", "132540.113000", "132540.116000", "132540.119000", "132540.122000", "132540.125000", "132540.128000", "132540.131000", "132540.136000", "132640.024000", "132640.027000", "132640.030000", "132640.034000", "132640.037000", "132640.040000", "132640.043000", "132640.046000", "132640.049000", "132640.052000", "132640.055000", "132640.058000", "132640.062000", "132640.065000", "132640.068000", "132640.071000", "132640.074000", "132640.077000", "132640.080000", "132640.083000", "132640.086000", "132640.089000", "132640.092000", "132640.096000", "132640.099000", "132640.102000", "132740.025000", "132740.028000", "132740.031000", "132740.035000", "132740.038000", "132740.041000", "132740.044000", "132740.052000", "132740.055000", "132740.058000", "132740.061000", "132740.064000", "132740.067000", "132740.070000", "132740.074000", "132740.077000", "132740.080000", "132740.083000", "132740.086000", "132740.089000", "132740.092000", "132740.095000", "132740.098000", "132740.102000", "132740.105000", "132740.108000", "132840.024000", "132840.027000", "132840.030000", "132840.034000", "132840.037000", "132840.040000", "132840.043000", "132840.046000", "132840.049000", "132840.052000", "132840.055000", "132840.059000", "132840.062000", "132840.065000", "132840.068000", "132840.071000", "132840.074000", "132840.077000", "132840.080000", "132840.083000", "132840.086000", "132840.090000", "132840.093000", "132840.096000", "132840.099000", "132844.935000", "132844.938000"],
      "InstanceCreationTime": ["132540.056000", "132540.060000", "132540.063000", "132540.066000", "132540.071000", "132540.074000", "132540.077000", "132540.080000", "132540.083000", "132540.086000", "132540.090000", "132540.093000", "132540.113000", "132540.116000", "132540.119000", "132540.122000", "132540.125000", "132540.128000", "132540.131000", "132540.136000", "132640.024000", "132640.027000", "132640.030000", "132640.034000", "132640.037000", "132640.040000", "132640.043000", "132640.046000", "132640.049000", "132640.052000", "132640.055000", "132640.058000", "132640.062000", "132640.065000", "132640.068000", "132640.071000", "132640.074000", "132640.077000", "132640.080000", "132640.083000", "132640.086000", "132640.089000", "132640.092000", "132640.096000", "132640.099000", "132640.102000", "132740.025000", "132740.028000", "132740.031000", "132740.035000", "132740.038000", "132740.041000", "132740.044000", "132740.052000", "132740.055000", "132740.058000", "132740.061000", "132740.064000", "132740.067000", "132740.070000", "132740.074000", "132740.077000", "132740.080000", "132740.083000", "132740.086000", "132740.089000", "132740.092000", "132740.095000", "132740.098000", "132740.102000", "132740.105000", "132740.108000", "132840.024000", "132840.027000", "132840.030000", "132840.034000", "132840.037000", "132840.040000", "132840.043000", "132840.046000", "132840.049000", "132840.052000", "132840.055000", "132840.059000", "132840.062000", "132840.065000", "132840.068000", "132840.071000", "132840.074000", "132840.077000", "132840.080000", "132840.083000", "132840.086000", "132840.090000", "132840.093000", "132840.096000", "132840.099000", "132844.935000", "132844.938000"],
      "InstanceNumber": [1, 2, 3, 4, 5, 6, 7, 8, 9, 10, 11, 12, 13, 14, 15, 16, 17, 18, 19, 20, 21, 22, 23, 24, 25, 26, 27, 28, 29, 30, 31, 32, 33, 34, 35, 36, 37, 38, 39, 40, 41, 42, 43, 44, 45, 46, 47, 48, 49, 50, 51, 52, 53, 54, 55, 56, 57, 58, 59, 60, 61, 62, 63, 64, 65, 66, 67, 68, 69, 70, 71, 72, 73, 74, 75, 76, 77, 78, 79, 80, 81, 82, 83, 84, 85, 86, 87, 88, 89, 90, 91, 92, 93, 94, 95, 96, 97, 98, 99],
      "LargestImagePixelValue": [65535, 65535, 13734, 5980, 12362, 6194, 13261, 7983, 13396, 5684, 13431, 6585, 12840, 7381, 12674, 7013, 11932, 65535, 8322, 12661, 5013, 13267, 6521, 14051, 6788, 13310, 6156, 12923, 6026, 11983, 6705, 14009, 6408, 65535, 13223, 6414, 13447, 5873, 13530, 5394, 14351, 6289, 11441, 9362, 12985, 5317, 13983, 8410, 13561, 65535, 6516, 13544, 5283, 12418, 6393, 12323, 6899, 12953, 5572, 12540, 5313, 13182, 5696, 11880, 6660, 65535, 13298, 10216, 13824, 5011, 13900, 6577, 13346, 5731, 12636, 6089, 12613, 6825, 13417, 6086, 12162, 65535, 7005, 12376, 5347, 11864, 7574, 13532, 5991, 12830, 6163, 12976, 5643, 12571, 8826, 12023, 6457, 11502, 6133],
      "SequenceName": [
 "ep_b5#1",
 "ep_b5#1",
 "ep_b1490#2",
 "ep_b2990#3",
 "ep_b1495#4",
 "ep_b3005#5",
 "ep_b1500#6",
 "ep_b2990#7",
 "ep_b1495#8",
 "ep_b3005#9",
 "ep_b1490#10",
 "ep_b2995#11",
 "ep_b1490#12",
 "ep_b2990#13",
 "ep_b1500#14",
 "ep_b2985#15",
 "ep_b1500#16",
 "ep_b5#17",
 "ep_b3005#18",
 "ep_b1490#19",
 "ep_b2995#20",
 "ep_b1500#21",
 "ep_b3000#22",
 "ep_b1495#23",
 "ep_b3005#24",
 "ep_b1490#25",
 "ep_b2985#26",
 "ep_b1505#27",
 "ep_b2995#28",
 "ep_b1500#29",
 "ep_b3000#30",
 "ep_b1490#31",
 "ep_b3000#32",
 "ep_b5#33",
 "ep_b1505#34",
 "ep_b3000#35",
 "ep_b1495#36",
 "ep_b2985#37",
 "ep_b1495#38",
 "ep_b2995#39",
 "ep_b1500#40",
 "ep_b2995#41",
 "ep_b1500#42",
 "ep_b2990#43",
 "ep_b1495#44",
 "ep_b2995#45",
 "ep_b1495#46",
 "ep_b3000#47",
 "ep_b1490#48",
 "ep_b5#49",
 "ep_b3005#50",
 "ep_b1500#51",
 "ep_b2990#52",
 "ep_b1505#53",
 "ep_b2995#54",
 "ep_b1495#55",
 "ep_b2990#56",
 "ep_b1490#57",
 "ep_b2995#58",
 "ep_b1500#59",
 "ep_b3000#60",
 "ep_b1500#61",
 "ep_b2985#62",
 "ep_b1500#63",
 "ep_b2990#64",
 "ep_b5#65",
 "ep_b1505#66",
 "ep_b3005#67",
 "ep_b1495#68",
 "ep_b3000#69",
 "ep_b1505#70",
 "ep_b3005#71",
 "ep_b1500#72",
 "ep_b3000#73",
 "ep_b1495#74",
 "ep_b2995#75",
 "ep_b1495#76",
 "ep_b2995#77",
 "ep_b1500#78",
 "ep_b3000#79",
 "ep_b1495#80",
 "ep_b5#81",
 "ep_b2990#82",
 "ep_b1500#83",
 "ep_b2985#84",
 "ep_b1495#85",
 "ep_b2995#86",
 "ep_b1495#87",
 "ep_b2995#88",
 "ep_b1490#89",
 "ep_b2985#90",
 "ep_b1500#91",
 "ep_b3000#92",
 "ep_b1490#93",
 "ep_b3005#94",
 "ep_b1495#95",
 "ep_b2990#96",
 "ep_b1500#97",
 "ep_b3000#98"
],
      "TriggerTime": [13297.5, 15632.5, 17967.5, 20300.0, 22635.0, 24967.5, 27302.5, 29637.5, 31970.0, 34305.0, 36637.5, 38972.5, 41307.5, 43640.0, 45975.0, 48307.5, 50642.5, 52977.5, 55310.0, 57645.0, 59977.5, 62312.5, 64647.5, 66980.0, 69315.0, 71647.5, 73982.5, 76317.5, 78650.0, 80985.0, 83317.5, 85652.5, 87987.5, 90320.0, 92655.0, 94987.5, 97322.5, 99657.5, 101990.0, 104325.0, 106657.5, 108992.5, 111327.5, 113660.0, 115995.0, 118327.5, 120662.5, 122997.5, 125330.0, 127665.0, 129997.5, 132332.5, 134667.5, 137000.0, 139335.0, 141667.5, 144002.5, 146337.5, 148670.0, 151005.0, 153337.5, 155672.5, 158007.5, 160340.0, 162675.0, 165007.5, 167342.5, 169677.5, 172010.0, 174345.0, 176677.5, 179012.5, 181347.5, 183680.0, 186015.0, 188347.5, 190682.5, 193017.5, 195350.0, 197685.0, 200017.5, 202352.5, 204687.5, 207020.0, 209355.0, 211687.5, 214022.5, 216357.5, 218690.0, 221025.0, 223357.5, 225692.5, 228027.5, 230360.0, 232695.0, 235027.5, 237362.5, 239697.5, 242030.0],
      "WindowCenter": [6832.0, 6888.0, 2714.0, 1604.0, 2699.0, 1576.0, 2706.0, 1662.0, 2727.0, 1530.0, 2683.0, 1657.0, 2708.0, 1658.0, 2681.0, 1627.0, 2644.0, 6945.0, 1634.0, 2732.0, 1550.0, 2753.0, 1649.0, 2753.0, 1644.0, 2657.0, 1544.0, 2670.0, 1623.0, 2692.0, 1562.0, 2708.0, 1617.0, 6877.0, 2661.0, 1591.0, 2720.0, 1534.0, 2707.0, 1598.0, 2757.0, 1622.0, 2628.0, 1678.0, 2729.0, 1543.0, 2768.0, 1665.0, 2671.0, 6855.0, 1584.0, 2738.0, 1585.0, 2637.0, 1633.0, 2684.0, 1643.0, 2694.0, 1532.0, 2720.0, 1556.0, 2647.0, 1548.0, 2680.0, 1644.0, 6912.0, 2660.0, 1688.0, 2715.0, 1552.0, 2732.0, 1645.0, 2706.0, 1528.0, 2656.0, 1605.0, 2689.0, 1655.0, 2700.0, 1562.0, 2663.0, 6852.0, 1599.0, 2690.0, 1549.0, 2670.0, 1672.0, 2725.0, 1624.0, 2639.0, 1536.0, 2718.0, 1617.0, 2685.0, 1630.0, 2651.0, 1618.0, 2619.0, 1618.0],
      "WindowWidth": [14924.0, 15024.0, 6464.0, 4112.0, 6434.0, 4083.0, 6425.0, 4245.0, 6489.0, 3950.0, 6402.0, 4247.0, 6469.0, 4250.0, 6387.0, 4179.0, 6320.0, 15146.0, 4175.0, 6511.0, 4005.0, 6547.0, 4244.0, 6536.0, 4226.0, 6336.0, 3979.0, 6403.0, 4184.0, 6427.0, 4023.0, 6452.0, 4169.0, 14996.0, 6378.0, 4090.0, 6469.0, 3966.0, 6436.0, 4109.0, 6568.0, 4163.0, 6287.0, 4277.0, 6497.0, 3974.0, 6571.0, 4248.0, 6377.0, 14944.0, 4084.0, 6520.0, 4096.0, 6304.0, 4206.0, 6403.0, 4213.0, 6442.0, 3956.0, 6477.0, 4025.0, 6316.0, 3998.0, 6382.0, 4217.0, 15070.0, 6367.0, 4289.0, 6464.0, 4006.0, 6516.0, 4223.0, 6432.0, 3943.0, 6351.0, 4142.0, 6417.0, 4236.0, 6451.0, 4026.0, 6350.0, 14971.0, 4116.0, 6418.0, 4002.0, 6404.0, 4275.0, 6480.0, 4167.0, 6308.0, 3972.0, 6477.0, 4159.0, 6410.0, 4161.0, 6327.0, 4173.0, 6277.0, 4176.0]
    },
    "slices": {}
  }
}