{
  "AcquisitionMatrixPE": 110,
  "AcquisitionNumber": 1,
  "AcquisitionTime": "13:20:43.210000",
  "BandwidthPerPixelPhaseEncode": 12.987,
  "BaseResolution": 110,
  "BodyPartExamined": "BRAIN",
  "CoilCombinationMethod": "Sum of Squares",
  "ConsistencyInfo": "N4_VE11C_LATEST_20160120",
  "ConversionSoftware": "dcm2niix",
  "ConversionSoftwareVersion": "v1.0.20211006",
  "DerivedVendorReportedEchoSpacing": 0.000700001,
  "DeviceSerialNumber": "167006",
  "DiffusionScheme": "Monopolar",
  "DwellTime": 2.7e-06,
  "EchoTime": 0.0816,
  "EchoTrainLength": 83,
  "EffectiveEchoSpacing": 0.000700001,
  "FlipAngle": 78,
  "HeudiconvVersion": "0.5.3.post569+g418601f",
  "ImageComments": "Unaliased MB3/PE3/LB SENSE1",
  "ImageOrientationPatientDICOM": [1, 0, 0, 0, 0.978148, -0.207912],
  "ImageOrientationText": "Tra>Cor(-12.0)",
  "ImageType": [
    "ORIGINAL",
    "PRIMARY",
    "DIFFUSION",
    "NONE",
    "MB",
    "ND",
    "MOSAIC"
],
  "ImagingFrequency": 123.259,
  "InPlanePhaseEncodingDirectionDICOM": "COL",
  "InstitutionAddress": "Chemin Queen-Mary 4565,Montreal,District,CA,H3W 1W5",
  "InstitutionName": "IUGM",
  "InstitutionalDepartmentName": "Department",
  "MRAcquisitionType": "2D",
  "MagneticFieldStrength": 3,
  "Manufacturer": "Siemens",
  "ManufacturersModelName": "Prisma_fit",
  "MatrixCoilMode": "SENSE",
  "Modality": "MR",
  "MultibandAccelerationFactor": 3,
  "PartialFourier": 0.75,
  "PatientPosition": "HFS",
  "PercentPhaseFOV": 100,
  "PercentSampling": 100,
  "PhaseEncodingDirection": "j-",
  "PhaseEncodingSteps": 83,
  "PhaseResolution": 1,
  "PixelBandwidth": 1685,
  "ProcedureStepDescription": "anat^generic",
  "ProtocolName": "dMRI_dir98_AP_test_cmrr",
  "PulseSequenceDetails": "%CustomerSeq%\\cmrr_mbep2d_diff",
  "ReceiveCoilActiveElements": "HC1-6",
  "ReceiveCoilName": "HeadNeck_64",
  "ReconMatrixPE": 110,
  "RepetitionTime": 2.334,
  "SAR": 0.138641,
  "ScanOptions": "PFP\\EXT",
  "ScanningSequence": "EP",
  "SequenceName": "ep_b5#1",
  "SequenceVariant": "SK\\SS",
  "SeriesDescription": "dMRI_dir98_AP_test_cmrr",
  "SeriesNumber": 7,
  "ShimSetting": [597, -7244, -8852, 608, -73, -264, 11, 71],
  "SliceThickness": 2,
  "SliceTiming": [0, 1.2175, 0.1225, 1.34, 0.245, 1.4625, 0.365, 1.5825, 0.4875, 1.705, 0.61, 1.8275, 0.73, 1.95, 0.8525, 2.07, 0.975, 2.1925, 1.0975, 0, 1.2175, 0.1225, 1.34, 0.245, 1.4625, 0.365, 1.5825, 0.4875, 1.705, 0.61, 1.8275, 0.73, 1.95, 0.8525, 2.07, 0.975, 2.1925, 1.0975, 0, 1.2175, 0.1225, 1.34, 0.245, 1.4625, 0.365, 1.5825, 0.4875, 1.705, 0.61, 1.8275, 0.73, 1.95, 0.8525, 2.07, 0.975, 2.1925, 1.0975],
  "SoftwareVersions": "syngo MR E11",
  "SpacingBetweenSlices": 2,
  "StationName": "MRC35049",
  "TotalReadoutTime": 0.0763001,
  "TxRefAmp": 217.38,
  "WipMemBlock": "89cc915a-da5c-426e-b221-3620dec285da||Sequence: R016 ve11c/master r/e634e98; Dec 19 2017 11:11:25 by eja",
  "dcmmeta_affine": [
    [-2.0, 0.0, 0.0, 109.49686431884766],
    [0.0, 1.9562952518463135, -0.415823370218277, -87.49837493896484],
    [0.0, 0.415823370218277, 1.956295132637024, -61.07993698120117],
    [0.0, 0.0, 0.0, 1.0]
],
  "dcmmeta_reorient_transform": [
    [0.0, -1.0, 0.0, 109.0],
    [1.0, 0.0, 0.0, 0.0],
    [0.0, 0.0, 1.0, 0.0],
    [0.0, 0.0, 0.0, 1.0]
],
  "dcmmeta_shape": [110, 110, 57, 99],
  "dcmmeta_slice_dim": 2,
  "dcmmeta_version": 0.6,
  "global": {
    "const": {
      "AcquisitionMatrix": [110, 0, 0, 110],
      "AngioFlag": "N",
      "BitsAllocated": 16,
      "BitsStored": 16,
      "BodyPartExamined": "BRAIN",
      "CardiacNumberOfImages": 1,
      "Columns": 880,
      "EchoNumbers": 1,
      "EchoTime": 81.6,
      "EchoTrainLength": 83,
      "FlipAngle": 78.0,
      "HighBit": 15,
      "ImageOrientationPatient": [1.0, 0.0, 0.0, 0.0, 0.97814760155, -0.2079116869779],
      "ImagePositionPatient": [-879.49686384201, -878.91145277953, 144.33681151808],
      "ImageType": [
        "ORIGINAL",
        "PRIMARY",
        "DIFFUSION",
        "NONE",
        "MB",
        "ND",
        "MOSAIC"
],
      "ImagedNucleus": "1H",
      "ImagingFrequency": 123.259026,
      "InPlanePhaseEncodingDirection": "COL",
      "MRAcquisitionType": "2D",
      "MagneticFieldStrength": 3.0,
      "Manufacturer": "SIEMENS",
      "ManufacturerModelName": "Prisma_fit",
      "Modality": "MR",
      "NominalInterval": 0,
      "NumberOfAverages": 1.0,
      "NumberOfPhaseEncodingSteps": 83,
      "PercentPhaseFieldOfView": 100.0,
      "PercentSampling": 100.0,
      "PerformedProcedureStepStartTime": "125226.531000",
      "PhotometricInterpretation": "MONOCHROME2",
      "PixelBandwidth": 1685.0,
      "PixelRepresentation": 0,
      "PixelSpacing": [2.0, 2.0],
      "ProtocolName": "dMRI_dir98_AP_test_cmrr",
      "RepetitionTime": 2334.0,
      "Rows": 880,
      "SAR": 0.13864098251167,
      "SamplesPerPixel": 1,
      "ScanOptions": [
        "PFP",
        "EXT"
],
      "ScanningSequence": "EP",
      "SequenceVariant": [
        "SK",
        "SS"
],
      "SeriesDescription": "dMRI_dir98_AP_test_cmrr",
      "SeriesNumber": 7,
      "SeriesTime": "132148.531000",
      "SliceLocation": -41.553256849793,
      "SliceThickness": 2.0,
      "SmallestImagePixelValue": 0,
      "SoftwareVersions": "syngo MR E11",
      "SpacingBetweenSlices": 1.999999949613,
      "SpecificCharacterSet": "ISO_IR 100",
      "StudyID": "1",
      "StudyTime": "125226.430000",
      "TransmitCoilName": "Body",
      "VariableFlipAngleFlag": "N",
      "WindowCenterWidthExplanation": "Algo1",
      "dBdt": 0.0},
    "slices": {}
  },
  "time": {
    "samples": {
      "AcquisitionNumber": [1, 2, 3, 4, 5, 6, 7, 8, 9, 10, 11, 12, 13, 14, 15, 16, 17, 18, 19, 20, 21, 22, 23, 24, 25, 26, 27, 28, 29, 30, 31, 32, 33, 34, 35, 36, 37, 38, 39, 40, 41, 42, 43, 44, 45, 46, 47, 48, 49, 50, 51, 52, 53, 54, 55, 56, 57, 58, 59, 60, 61, 62, 63, 64, 65, 66, 67, 68, 69, 70, 71, 72, 73, 74, 75, 76, 77, 78, 79, 80, 81, 82, 83, 84, 85, 86, 87, 88, 89, 90, 91, 92, 93, 94, 95, 96, 97, 98, 99],
      "AcquisitionTime": ["132043.210000", "132045.545000", "132047.877500", "132050.212500", "132052.547500", "132054.880000", "132057.215000", "132059.547500", "132101.882500", "132104.217500", "132106.550000", "132108.885000", "132111.217500", "132113.552500", "132115.887500", "132118.220000", "132120.555000", "132122.887500", "132125.222500", "132127.557500", "132129.890000", "132132.225000", "132134.557500", "132136.892500", "132139.227500", "132141.560000", "132143.895000", "132146.227500", "132148.562500", "132150.897500", "132153.230000", "132155.565000", "132157.897500", "132200.232500", "132202.567500", "132204.900000", "132207.235000", "132209.567500", "132211.902500", "132214.237500", "132216.570000", "132218.905000", "132221.237500", "132223.572500", "132225.907500", "132228.240000", "132230.575000", "132232.907500", "132235.242500", "132237.577500", "132239.910000", "132242.245000", "132244.577500", "132246.912500", "132249.247500", "132251.580000", "132253.915000", "132256.247500", "132258.582500", "132300.917500", "132303.250000", "132305.585000", "132307.917500", "132310.252500", "132312.587500", "132314.920000", "132317.255000", "132319.587500", "132321.922500", "132324.257500", "132326.590000", "132328.925000", "132331.257500", "132333.592500", "132335.927500", "132338.260000", "132340.595000", "132342.927500", "132345.262500", "132347.597500", "132349.930000", "132352.265000", "132354.597500", "132356.932500", "132359.267500", "132401.600000", "132403.935000", "132406.267500", "132408.602500", "132410.937500", "132413.270000", "132415.605000", "132417.937500", "132420.272500", "132422.607500", "132424.940000", "132427.275000", "132429.607500", "132431.942500"],
      "ContentTime": ["132148.535000", "132148.539000", "132148.543000", "132148.546000", "132148.549000", "132148.553000", "132148.557000", "132148.560000", "132148.564000", "132148.568000", "132148.571000", "132148.575000", "132148.579000", "132148.583000", "132148.586000", "132148.599000", "132148.603000", "132148.607000", "132148.611000", "132148.614000", "132148.618000", "132148.622000", "132148.625000", "132148.628000", "132148.641000", "132148.652000", "132148.655000", "132248.493000", "132248.497000", "132248.500000", "132248.503000", "132248.506000", "132248.509000", "132248.513000", "132248.516000", "132248.519000", "132248.522000", "132248.525000", "132248.528000", "132248.532000", "132248.535000", "132248.538000", "132248.541000", "132248.545000", "132248.548000", "132248.551000", "132248.554000", "132248.558000", "132248.561000", "132248.564000", "132248.567000", "132248.570000", "132248.574000", "132348.492000", "132348.495000", "132348.498000", "132348.502000", "132348.505000", "132348.508000", "132348.511000", "132348.514000", "132348.517000", "132348.520000", "132348.523000", "132348.527000", "132348.530000", "132348.533000", "132348.536000", "132348.539000", "132348.542000", "132348.546000", "132348.549000", "132348.552000", "132348.555000", "132348.558000", "132348.561000", "132348.564000", "132348.567000", "132348.570000", "132436.994000", "132436.998000", "132437.002000", "132437.005000", "132437.008000", "132437.011000", "132437.014000", "132437.017000", "132437.021000", "132437.024000", "132437.027000", "132437.030000", "132437.034000", "132437.037000", "132437.040000", "132437.044000", "132437.048000", "132437.051000", "132437.055000", "132437.058000"],
      "InstanceCreationTime": ["132148.535000", "132148.539000", "132148.543000", "132148.546000", "132148.549000", "132148.553000", "132148.557000", "132148.560000", "132148.564000", "132148.568000", "132148.571000", "132148.575000", "132148.579000", "132148.583000", "132148.586000", "132148.599000", "132148.603000", "132148.607000", "132148.611000", "132148.614000", "132148.618000", "132148.622000", "132148.625000", "132148.628000", "132148.641000", "132148.652000", "132148.655000", "132248.493000", "132248.497000", "132248.500000", "132248.503000", "132248.506000", "132248.509000", "132248.513000", "132248.516000", "132248.519000", "132248.522000", "132248.525000", "132248.528000", "132248.532000", "132248.535000", "132248.538000", "132248.541000", "132248.545000", "132248.548000", "132248.551000", "132248.554000", "132248.558000", "132248.561000", "132248.564000", "132248.567000", "132248.570000", "132248.574000", "132348.492000", "132348.495000", "132348.498000", "132348.502000", "132348.505000", "132348.508000", "132348.511000", "132348.514000", "132348.517000", "132348.520000", "132348.523000", "132348.527000", "132348.530000", "132348.533000", "132348.536000", "132348.539000", "132348.542000", "132348.546000", "132348.549000", "132348.552000", "132348.555000", "132348.558000", "132348.561000", "132348.564000", "132348.567000", "132348.570000", "132436.994000", "132436.998000", "132437.002000", "132437.005000", "132437.008000", "132437.011000", "132437.014000", "132437.017000", "132437.021000", "132437.024000", "132437.027000", "132437.030000", "132437.034000", "132437.037000", "132437.040000", "132437.044000", "132437.048000", "132437.051000", "132437.055000", "132437.058000"],
      "InstanceNumber": [1, 2, 3, 4, 5, 6, 7, 8, 9, 10, 11, 12, 13, 14, 15, 16, 17, 18, 19, 20, 21, 22, 23, 24, 25, 26, 27, 28, 29, 30, 31, 32, 33, 34, 35, 36, 37, 38, 39, 40, 41, 42, 43, 44, 45, 46, 47, 48, 49, 50, 51, 52, 53, 54, 55, 56, 57, 58, 59, 60, 61, 62, 63, 64, 65, 66, 67, 68, 69, 70, 71, 72, 73, 74, 75, 76, 77, 78, 79, 80, 81, 82, 83, 84, 85, 86, 87, 88, 89, 90, 91, 92, 93, 94, 95, 96, 97, 98, 99],
      "LargestImagePixelValue": [35196, 35653, 10246, 4423, 9824, 4423, 10316, 5370, 9996, 4645, 9524, 4292, 10075, 4974, 9680, 6294, 10088, 32715, 5698, 9517, 4560, 8951, 4651, 9794, 4383, 9954, 4885, 9397, 5400, 9300, 5973, 9395, 4291, 32191, 9461, 5092, 9944, 4379, 9462, 4339, 9724, 4186, 9520, 4385, 9565, 4570, 9500, 6980, 10277, 34751, 4477, 9816, 4943, 9561, 4888, 9890, 4255, 9229, 5067, 10067, 5400, 9635, 5698, 9484, 4305, 34092, 9139, 5520, 9851, 4483, 9745, 4176, 9843, 4465, 9798, 4603, 10175, 4081, 9554, 4603, 9503, 33461, 4555, 10163, 4877, 9959, 6241, 8815, 4508, 9711, 4859, 9576, 4753, 9839, 6153, 10060, 5727, 10174, 4597],
      "SequenceName": [
 "ep_b5#1",
 "ep_b5#1",
 "ep_b1490#2",
 "ep_b2990#3",
 "ep_b1495#4",
 "ep_b3005#5",
 "ep_b1500#6",
 "ep_b2990#7",
 "ep_b1495#8",
 "ep_b3005#9",
 "ep_b1490#10",
 "ep_b2995#11",
 "ep_b1490#12",
 "ep_b2990#13",
 "ep_b1500#14",
 "ep_b2985#15",
 "ep_b1500#16",
 "ep_b5#17",
 "ep_b3005#18",
 "ep_b1490#19",
 "ep_b2995#20",
 "ep_b1500#21",
 "ep_b3000#22",
 "ep_b1495#23",
 "ep_b3005#24",
 "ep_b1490#25",
 "ep_b2985#26",
 "ep_b1505#27",
 "ep_b2995#28",
 "ep_b1500#29",
 "ep_b3000#30",
 "ep_b1490#31",
 "ep_b3000#32",
 "ep_b5#33",
 "ep_b1505#34",
 "ep_b3000#35",
 "ep_b1495#36",
 "ep_b2985#37",
 "ep_b1495#38",
 "ep_b2995#39",
 "ep_b1500#40",
 "ep_b2995#41",
 "ep_b1500#42",
 "ep_b2990#43",
 "ep_b1495#44",
 "ep_b2995#45",
 "ep_b1495#46",
 "ep_b3000#47",
 "ep_b1490#48",
 "ep_b5#49",
 "ep_b3005#50",
 "ep_b1500#51",
 "ep_b2990#52",
 "ep_b1505#53",
 "ep_b2995#54",
 "ep_b1495#55",
 "ep_b2990#56",
 "ep_b1490#57",
 "ep_b2995#58",
 "ep_b1500#59",
 "ep_b3000#60",
 "ep_b1500#61",
 "ep_b2985#62",
 "ep_b1500#63",
 "ep_b2990#64",
 "ep_b5#65",
 "ep_b1505#66",
 "ep_b3005#67",
 "ep_b1495#68",
 "ep_b3000#69",
 "ep_b1505#70",
 "ep_b3005#71",
 "ep_b1500#72",
 "ep_b3000#73",
 "ep_b1495#74",
 "ep_b2995#75",
 "ep_b1495#76",
 "ep_b2995#77",
 "ep_b1500#78",
 "ep_b3000#79",
 "ep_b1495#80",
 "ep_b5#81",
 "ep_b2990#82",
 "ep_b1500#83",
 "ep_b2985#84",
 "ep_b1495#85",
 "ep_b2995#86",
 "ep_b1495#87",
 "ep_b2995#88",
 "ep_b1490#89",
 "ep_b2985#90",
 "ep_b1500#91",
 "ep_b3000#92",
 "ep_b1490#93",
 "ep_b3005#94",
 "ep_b1495#95",
 "ep_b2990#96",
 "ep_b1500#97",
 "ep_b3000#98"
],
      "TriggerTime": [13297.5, 15632.5, 17965.0, 20300.0, 22632.5, 24967.5, 27302.5, 29635.0, 31970.0, 34302.5, 36637.5, 38972.5, 41305.0, 43640.0, 45972.5, 48307.5, 50642.5, 52975.0, 55310.0, 57642.5, 59977.5, 62312.5, 64645.0, 66980.0, 69312.5, 71647.5, 73982.5, 76315.0, 78650.0, 80982.5, 83317.5, 85652.5, 87985.0, 90320.0, 92652.5, 94987.5, 97322.5, 99655.0, 101990.0, 104322.5, 106657.5, 108992.5, 111325.0, 113660.0, 115992.5, 118327.5, 120662.5, 122995.0, 125330.0, 127662.5, 129997.5, 132332.5, 134665.0, 137000.0, 139332.5, 141667.5, 144002.5, 146335.0, 148670.0, 151002.5, 153337.5, 155672.5, 158005.0, 160340.0, 162672.5, 165007.5, 167342.5, 169675.0, 172010.0, 174342.5, 176677.5, 179012.5, 181345.0, 183680.0, 186012.5, 188347.5, 190682.5, 193015.0, 195350.0, 197682.5, 200017.5, 202352.5, 204685.0, 207020.0, 209352.5, 211687.5, 214022.5, 216355.0, 218690.0, 221022.5, 223357.5, 225692.5, 228025.0, 230360.0, 232692.5, 235027.5, 237362.5, 239695.0, 242030.0],
      "WindowCenter": [6721.0, 6715.0, 2650.0, 1543.0, 2746.0, 1526.0, 2700.0, 1588.0, 2687.0, 1513.0, 2608.0, 1547.0, 2719.0, 1606.0, 2683.0, 1626.0, 2655.0, 6669.0, 1574.0, 2698.0, 1545.0, 2680.0, 1583.0, 2684.0, 1561.0, 2622.0, 1518.0, 2668.0, 1625.0, 2704.0, 1587.0, 2704.0, 1536.0, 6617.0, 2636.0, 1569.0, 2629.0, 1488.0, 2663.0, 1579.0, 2679.0, 1534.0, 2619.0, 1545.0, 2667.0, 1519.0, 2663.0, 1639.0, 2665.0, 6658.0, 1522.0, 2684.0, 1576.0, 2595.0, 1604.0, 2674.0, 1562.0, 2665.0, 1544.0, 2696.0, 1547.0, 2625.0, 1539.0, 2712.0, 1573.0, 6618.0, 2608.0, 1582.0, 2706.0, 1544.0, 2655.0, 1533.0, 2690.0, 1485.0, 2620.0, 1566.0, 2680.0, 1546.0, 2689.0, 1545.0, 2630.0, 6651.0, 1525.0, 2657.0, 1519.0, 2702.0, 1628.0, 2601.0, 1540.0, 2591.0, 1516.0, 2680.0, 1557.0, 2727.0, 1572.0, 2659.0, 1601.0, 2643.0, 1540.0],
      "WindowWidth": [14597.0, 14584.0, 6283.0, 3992.0, 6484.0, 3949.0, 6381.0, 4089.0, 6370.0, 3902.0, 6203.0, 4014.0, 6426.0, 4136.0, 6364.0, 4159.0, 6305.0, 14469.0, 4035.0, 6387.0, 4000.0, 6347.0, 4100.0, 6360.0, 4040.0, 6234.0, 3916.0, 6323.0, 4188.0, 6394.0, 4066.0, 6411.0, 3988.0, 14361.0, 6255.0, 4044.0, 6253.0, 3850.0, 6309.0, 4084.0, 6341.0, 3986.0, 6228.0, 3997.0, 6328.0, 3924.0, 6317.0, 4190.0, 6318.0, 14422.0, 3936.0, 6345.0, 4073.0, 6182.0, 4156.0, 6335.0, 4044.0, 6319.0, 3979.0, 6388.0, 3986.0, 6246.0, 3948.0, 6404.0, 4086.0, 14355.0, 6203.0, 4070.0, 6400.0, 3999.0, 6294.0, 3983.0, 6372.0, 3842.0, 6225.0, 4065.0, 6348.0, 4007.0, 6363.0, 4006.0, 6244.0, 14425.0, 3942.0, 6307.0, 3924.0, 6386.0, 4172.0, 6203.0, 3986.0, 6166.0, 3909.0, 6354.0, 4027.0, 6434.0, 4034.0, 6301.0, 4125.0, 6271.0, 3977.0]
    },
    "slices": {}
  }
}