{
  "AcquisitionMatrixPE": 110,
  "AcquisitionNumber": 1,
  "AcquisitionTime": "17:45:3.020000",
  "BandwidthPerPixelPhaseEncode": 12.987,
  "BaseResolution": 110,
  "BodyPartExamined": "BRAIN",
  "CoilCombinationMethod": "Sum of Squares",
  "ConsistencyInfo": "N4_VE11C_LATEST_20160120",
  "ConversionSoftware": "dcm2niix",
  "ConversionSoftwareVersion": "v1.0.20211006",
  "DerivedVendorReportedEchoSpacing": 0.000700001,
  "DeviceSerialNumber": "167006",
  "DiffusionScheme": "Monopolar",
  "DwellTime": 2.7e-06,
  "EchoTime": 0.0816,
  "EchoTrainLength": 83,
  "EffectiveEchoSpacing": 0.000700001,
  "FlipAngle": 78,
  "HeudiconvVersion": "0.5.3.post569+g418601f",
  "ImageComments": "Unaliased MB3/PE3/LB SENSE1",
  "ImageOrientationPatientDICOM": [1, 0, 0, 0, 0.97437, -0.224951],
  "ImageOrientationText": "Tra>Cor(-13.0)",
  "ImageType": [
    "ORIGINAL",
    "PRIMARY",
    "DIFFUSION",
    "NONE",
    "MB",
    "ND",
    "MOSAIC"
],
  "ImagingFrequency": 123.259,
  "InPlanePhaseEncodingDirectionDICOM": "COL",
  "InstitutionAddress": "Chemin Queen-Mary 4565,Montreal,District,CA,H3W 1W5",
  "InstitutionName": "IUGM",
  "InstitutionalDepartmentName": "Department",
  "MRAcquisitionType": "2D",
  "MagneticFieldStrength": 3,
  "Manufacturer": "Siemens",
  "ManufacturersModelName": "Prisma_fit",
  "MatrixCoilMode": "SENSE",
  "Modality": "MR",
  "MultibandAccelerationFactor": 3,
  "PartialFourier": 0.75,
  "PatientPosition": "HFS",
  "PercentPhaseFOV": 100,
  "PercentSampling": 100,
  "PhaseEncodingDirection": "j-",
  "PhaseEncodingSteps": 83,
  "PhaseResolution": 1,
  "PixelBandwidth": 1685,
  "ProcedureStepDescription": "anat^generic",
  "ProtocolName": "dMRI_dir98_AP_test_cmrr",
  "PulseSequenceDetails": "%CustomerSeq%\\cmrr_mbep2d_diff",
  "ReceiveCoilActiveElements": "HC1-6",
  "ReceiveCoilName": "HeadNeck_64",
  "ReconMatrixPE": 110,
  "RepetitionTime": 2.334,
  "SAR": 0.106903,
  "ScanOptions": "PFP\\EXT",
  "ScanningSequence": "EP",
  "SequenceName": "ep_b5#1",
  "SequenceVariant": "SK\\SS",
  "SeriesDescription": "dMRI_dir98_AP_test_cmrr",
  "SeriesNumber": 7,
  "ShimSetting": [635, -7224, -8755, 672, 20, 11, 112, 13],
  "SliceThickness": 2,
  "SliceTiming": [0, 1.22, 0.1225, 1.34, 0.245, 1.4625, 0.3675, 1.585, 0.4875, 1.705, 0.61, 1.8275, 0.7325, 1.95, 0.8525, 2.0725, 0.975, 2.1925, 1.0975, 0, 1.22, 0.1225, 1.34, 0.245, 1.4625, 0.3675, 1.585, 0.4875, 1.705, 0.61, 1.8275, 0.7325, 1.95, 0.8525, 2.0725, 0.975, 2.1925, 1.0975, 0, 1.22, 0.1225, 1.34, 0.245, 1.4625, 0.3675, 1.585, 0.4875, 1.705, 0.61, 1.8275, 0.7325, 1.95, 0.8525, 2.0725, 0.975, 2.1925, 1.0975],
  "SoftwareVersions": "syngo MR E11",
  "SpacingBetweenSlices": 2,
  "StationName": "MRC35049",
  "TotalReadoutTime": 0.0763001,
  "TxRefAmp": 204.172,
  "WipMemBlock": "3cc3aa6b-b343-47f4-a5a5-ad15460af30f||Sequence: R016 ve11c/master r/e634e98; Dec 19 2017 11:11:25 by eja",
  "dcmmeta_affine": [
    [-2.0, 0.0, 0.0, 109.49686431884766],
    [0.0, 1.9487401247024536, -0.44990211725234985, -84.51458740234375],
    [0.0, 0.44990211725234985, 1.9487401247024536, -36.962162017822266],
    [0.0, 0.0, 0.0, 1.0]
],
  "dcmmeta_reorient_transform": [
    [0.0, -1.0, 0.0, 109.0],
    [1.0, 0.0, 0.0, 0.0],
    [0.0, 0.0, 1.0, 0.0],
    [0.0, 0.0, 0.0, 1.0]
],
  "dcmmeta_shape": [110, 110, 57, 99],
  "dcmmeta_slice_dim": 2,
  "dcmmeta_version": 0.6,
  "global": {
    "const": {
      "AcquisitionMatrix": [110, 0, 0, 110],
      "AngioFlag": "N",
      "BitsAllocated": 16,
      "BitsStored": 16,
      "BodyPartExamined": "BRAIN",
      "CardiacNumberOfImages": 1,
      "Columns": 880,
      "EchoNumbers": 1,
      "EchoTime": 81.6,
      "EchoTrainLength": 83,
      "FlipAngle": 78.0,
      "HighBit": 15,
      "ImageOrientationPatient": [1.0, 0.0, 0.0, 0.0, 0.97437006476663, -0.2249510544245],
      "ImagePositionPatient": [-879.49686384201, -878.16303751832, 185.28947794237],
      "ImageType": [
        "ORIGINAL",
        "PRIMARY",
        "DIFFUSION",
        "NONE",
        "MB",
        "ND",
        "MOSAIC"
],
      "ImagedNucleus": "1H",
      "ImagingFrequency": 123.25889,
      "InPlanePhaseEncodingDirection": "COL",
      "MRAcquisitionType": "2D",
      "MagneticFieldStrength": 3.0,
      "Manufacturer": "SIEMENS",
      "ManufacturerModelName": "Prisma_fit",
      "Modality": "MR",
      "NominalInterval": 0,
      "NumberOfAverages": 1.0,
      "NumberOfPhaseEncodingSteps": 83,
      "PercentPhaseFieldOfView": 100.0,
      "PercentSampling": 100.0,
      "PerformedProcedureStepStartTime": "172839.804000",
      "PhotometricInterpretation": "MONOCHROME2",
      "PixelBandwidth": 1685.0,
      "PixelRepresentation": 0,
      "PixelSpacing": [2.0, 2.0],
      "ProtocolName": "dMRI_dir98_AP_test_cmrr",
      "RepetitionTime": 2334.0,
      "Rows": 880,
      "SAR": 0.10690306772677,
      "SamplesPerPixel": 1,
      "ScanOptions": [
        "PFP",
        "EXT"
],
      "ScanningSequence": "EP",
      "SequenceVariant": [
        "SK",
        "SS"
],
      "SeriesDescription": "dMRI_dir98_AP_test_cmrr",
      "SeriesNumber": 7,
      "SeriesTime": "174555.576000",
      "SliceLocation": -17.003180623067,
      "SliceThickness": 2.0,
      "SmallestImagePixelValue": 0,
      "SoftwareVersions": "syngo MR E11",
      "SpacingBetweenSlices": 2.0000000118613,
      "SpecificCharacterSet": "ISO_IR 100",
      "StudyID": "1",
      "StudyTime": "172839.657000",
      "TransmitCoilName": "Body",
      "VariableFlipAngleFlag": "N",
      "WindowCenterWidthExplanation": "Algo1",
      "dBdt": 0.0},
    "slices": {}
  },
  "time": {
    "samples": {
      "AcquisitionNumber": [1, 2, 3, 4, 5, 6, 7, 8, 9, 10, 11, 12, 13, 14, 15, 16, 17, 18, 19, 20, 21, 22, 23, 24, 25, 26, 27, 28, 29, 30, 31, 32, 33, 34, 35, 36, 37, 38, 39, 40, 41, 42, 43, 44, 45, 46, 47, 48, 49, 50, 51, 52, 53, 54, 55, 56, 57, 58, 59, 60, 61, 62, 63, 64, 65, 66, 67, 68, 69, 70, 71, 72, 73, 74, 75, 76, 77, 78, 79, 80, 81, 82, 83, 84, 85, 86, 87, 88, 89, 90, 91, 92, 93, 94, 95, 96, 97, 98, 99],
      "AcquisitionTime": ["174503.020000", "174505.355000", "174507.690000", "174510.022500", "174512.357500", "174514.690000", "174517.025000", "174519.360000", "174521.692500", "174524.027500", "174526.360000", "174528.695000", "174531.030000", "174533.362500", "174535.697500", "174538.030000", "174540.365000", "174542.700000", "174545.032500", "174547.367500", "174549.700000", "174552.035000", "174554.370000", "174556.702500", "174559.037500", "174601.370000", "174603.705000", "174606.040000", "174608.372500", "174610.707500", "174613.040000", "174615.375000", "174617.710000", "174620.042500", "174622.377500", "174624.710000", "174627.045000", "174629.380000", "174631.712500", "174634.047500", "174636.380000", "174638.715000", "174641.050000", "174643.382500", "174645.717500", "174648.050000", "174650.385000", "174652.720000", "174655.052500", "174657.387500", "174659.720000", "174702.055000", "174704.390000", "174706.722500", "174709.057500", "174711.390000", "174713.725000", "174716.060000", "174718.392500", "174720.727500", "174723.060000", "174725.395000", "174727.730000", "174730.062500", "174732.397500", "174734.730000", "174737.065000", "174739.400000", "174741.732500", "174744.067500", "174746.400000", "174748.735000", "174751.070000", "174753.402500", "174755.737500", "174758.070000", "174800.405000", "174802.740000", "174805.072500", "174807.407500", "174809.740000", "174812.075000", "174814.410000", "174816.742500", "174819.077500", "174821.410000", "174823.745000", "174826.080000", "174828.412500", "174830.747500", "174833.080000", "174835.415000", "174837.750000", "174840.082500", "174842.417500", "174844.750000", "174847.085000", "174849.420000", "174851.752500"],
      "ContentTime": ["174555.579000", "174555.582000", "174555.586000", "174555.589000", "174555.598000", "174555.601000", "174555.604000", "174555.607000", "174555.610000", "174555.620000", "174555.627000", "174555.630000", "174555.633000", "174555.636000", "174555.639000", "174555.642000", "174555.645000", "174555.648000", "174555.651000", "174555.654000", "174555.657000", "174555.660000", "174655.549000", "174655.552000", "174655.555000", "174655.558000", "174655.562000", "174655.565000", "174655.577000", "174655.580000", "174655.583000", "174655.586000", "174655.589000", "174655.592000", "174655.595000", "174655.598000", "174655.601000", "174655.604000", "174655.607000", "174655.611000", "174655.614000", "174655.617000", "174655.620000", "174655.623000", "174655.626000", "174655.634000", "174655.637000", "174655.640000", "174755.549000", "174755.552000", "174755.556000", "174755.559000", "174755.562000", "174755.565000", "174755.568000", "174755.571000", "174755.575000", "174755.578000", "174755.581000", "174755.584000", "174755.587000", "174755.590000", "174755.593000", "174755.596000", "174755.599000", "174755.602000", "174755.620000", "174755.623000", "174755.626000", "174755.630000", "174755.633000", "174755.636000", "174755.639000", "174855.552000", "174855.556000", "174855.560000", "174855.563000", "174855.566000", "174855.569000", "174855.572000", "174855.576000", "174855.579000", "174855.584000", "174855.588000", "174855.591000", "174855.594000", "174855.598000", "174855.601000", "174855.604000", "174855.609000", "174855.612000", "174855.617000", "174855.621000", "174855.624000", "174855.628000", "174855.632000", "174855.636000", "174855.639000", "174855.643000"],
      "InstanceCreationTime": ["174555.579000", "174555.582000", "174555.586000", "174555.589000", "174555.598000", "174555.601000", "174555.604000", "174555.607000", "174555.610000", "174555.620000", "174555.627000", "174555.630000", "174555.633000", "174555.636000", "174555.639000", "174555.642000", "174555.645000", "174555.648000", "174555.651000", "174555.654000", "174555.657000", "174555.660000", "174655.549000", "174655.552000", "174655.555000", "174655.558000", "174655.562000", "174655.565000", "174655.577000", "174655.580000", "174655.583000", "174655.586000", "174655.589000", "174655.592000", "174655.595000", "174655.598000", "174655.601000", "174655.604000", "174655.607000", "174655.611000", "174655.614000", "174655.617000", "174655.620000", "174655.623000", "174655.626000", "174655.634000", "174655.637000", "174655.640000", "174755.549000", "174755.552000", "174755.556000", "174755.559000", "174755.562000", "174755.565000", "174755.568000", "174755.571000", "174755.575000", "174755.578000", "174755.581000", "174755.584000", "174755.587000", "174755.590000", "174755.593000", "174755.596000", "174755.599000", "174755.602000", "174755.620000", "174755.623000", "174755.626000", "174755.630000", "174755.633000", "174755.636000", "174755.639000", "174855.552000", "174855.556000", "174855.560000", "174855.563000", "174855.566000", "174855.569000", "174855.572000", "174855.576000", "174855.579000", "174855.584000", "174855.588000", "174855.591000", "174855.594000", "174855.598000", "174855.601000", "174855.604000", "174855.609000", "174855.612000", "174855.617000", "174855.621000", "174855.624000", "174855.628000", "174855.632000", "174855.636000", "174855.639000", "174855.643000"],
      "InstanceNumber": [1, 2, 3, 4, 5, 6, 7, 8, 9, 10, 11, 12, 13, 14, 15, 16, 17, 18, 19, 20, 21, 22, 23, 24, 25, 26, 27, 28, 29, 30, 31, 32, 33, 34, 35, 36, 37, 38, 39, 40, 41, 42, 43, 44, 45, 46, 47, 48, 49, 50, 51, 52, 53, 54, 55, 56, 57, 58, 59, 60, 61, 62, 63, 64, 65, 66, 67, 68, 69, 70, 71, 72, 73, 74, 75, 76, 77, 78, 79, 80, 81, 82, 83, 84, 85, 86, 87, 88, 89, 90, 91, 92, 93, 94, 95, 96, 97, 98, 99],
      "LargestImagePixelValue": [33907, 34264, 9413, 4067, 11581, 5100, 9409, 4424, 9490, 4529, 9886, 4613, 9223, 4770, 9629, 5927, 10351, 33818, 5506, 9373, 4331, 9168, 6022, 9267, 4272, 9217, 4541, 10494, 4888, 9102, 4906, 11325, 5398, 33580, 9432, 4566, 9002, 4064, 9107, 4181, 9882, 4291, 10013, 4725, 9484, 4684, 9514, 5012, 11078, 35498, 5692, 9187, 4507, 9605, 5735, 9286, 4559, 9280, 5140, 11148, 4759, 9168, 5079, 9300, 5310, 34681, 10020, 4803, 9141, 4268, 11401, 6665, 9748, 4428, 10094, 4571, 9588, 4139, 8679, 4582, 9118, 43077, 4684, 9960, 4305, 10113, 4689, 9177, 4541, 9496, 4859, 10485, 4203, 9774, 5466, 9608, 5323, 9382, 4933],
      "SequenceName": [
 "ep_b5#1",
 "ep_b5#1",
 "ep_b1490#2",
 "ep_b2990#3",
 "ep_b1495#4",
 "ep_b3005#5",
 "ep_b1500#6",
 "ep_b2990#7",
 "ep_b1495#8",
 "ep_b3005#9",
 "ep_b1490#10",
 "ep_b2995#11",
 "ep_b1490#12",
 "ep_b2990#13",
 "ep_b1500#14",
 "ep_b2985#15",
 "ep_b1500#16",
 "ep_b5#17",
 "ep_b3005#18",
 "ep_b1490#19",
 "ep_b2995#20",
 "ep_b1500#21",
 "ep_b3000#22",
 "ep_b1495#23",
 "ep_b3005#24",
 "ep_b1490#25",
 "ep_b2985#26",
 "ep_b1505#27",
 "ep_b2990#28",
 "ep_b1500#29",
 "ep_b3000#30",
 "ep_b1490#31",
 "ep_b3000#32",
 "ep_b5#33",
 "ep_b1505#34",
 "ep_b3000#35",
 "ep_b1495#36",
 "ep_b2985#37",
 "ep_b1495#38",
 "ep_b2995#39",
 "ep_b1500#40",
 "ep_b2995#41",
 "ep_b1500#42",
 "ep_b2990#43",
 "ep_b1495#44",
 "ep_b2995#45",
 "ep_b1495#46",
 "ep_b3000#47",
 "ep_b1490#48",
 "ep_b5#49",
 "ep_b3005#50",
 "ep_b1500#51",
 "ep_b2990#52",
 "ep_b1505#53",
 "ep_b2995#54",
 "ep_b1495#55",
 "ep_b2990#56",
 "ep_b1490#57",
 "ep_b2995#58",
 "ep_b1500#59",
 "ep_b3000#60",
 "ep_b1500#61",
 "ep_b2985#62",
 "ep_b1500#63",
 "ep_b2990#64",
 "ep_b5#65",
 "ep_b1505#66",
 "ep_b3005#67",
 "ep_b1495#68",
 "ep_b3000#69",
 "ep_b1505#70",
 "ep_b3005#71",
 "ep_b1500#72",
 "ep_b3000#73",
 "ep_b1495#74",
 "ep_b2995#75",
 "ep_b1495#76",
 "ep_b2995#77",
 "ep_b1500#78",
 "ep_b3000#79",
 "ep_b1495#80",
 "ep_b5#81",
 "ep_b2990#82",
 "ep_b1500#83",
 "ep_b2985#84",
 "ep_b1495#85",
 "ep_b2995#86",
 "ep_b1495#87",
 "ep_b2995#88",
 "ep_b1490#89",
 "ep_b2985#90",
 "ep_b1500#91",
 "ep_b3000#92",
 "ep_b1490#93",
 "ep_b3005#94",
 "ep_b1495#95",
 "ep_b2990#96",
 "ep_b1500#97",
 "ep_b3000#98"
],
      "TriggerTime": [13295.0, 15630.0, 17962.5, 20297.5, 22632.5, 24965.0, 27300.0, 29632.5, 31967.5, 34302.5, 36635.0, 38970.0, 41302.5, 43637.5, 45972.5, 48305.0, 50640.0, 52972.5, 55307.5, 57642.5, 59975.0, 62310.0, 64642.5, 66977.5, 69312.5, 71645.0, 73980.0, 76312.5, 78647.5, 80982.5, 83315.0, 85650.0, 87982.5, 90317.5, 92652.5, 94985.0, 97320.0, 99652.5, 101987.5, 104322.5, 106655.0, 108990.0, 111322.5, 113657.5, 115992.5, 118325.0, 120660.0, 122992.5, 125327.5, 127662.5, 129995.0, 132330.0, 134662.5, 136997.5, 139332.5, 141665.0, 144000.0, 146332.5, 148667.5, 151002.5, 153335.0, 155670.0, 158002.5, 160337.5, 162672.5, 165005.0, 167340.0, 169672.5, 172007.5, 174342.5, 176675.0, 179010.0, 181342.5, 183677.5, 186012.5, 188345.0, 190680.0, 193012.5, 195347.5, 197682.5, 200015.0, 202350.0, 204682.5, 207017.5, 209352.5, 211685.0, 214020.0, 216352.5, 218687.5, 221022.5, 223355.0, 225690.0, 228022.5, 230357.5, 232692.5, 235025.0, 237360.0, 239692.5, 242027.5],
      "WindowCenter": [6826.0, 6863.0, 2634.0, 1564.0, 2756.0, 1618.0, 2721.0, 1533.0, 2648.0, 1556.0, 2661.0, 1594.0, 2737.0, 1578.0, 2676.0, 1617.0, 2655.0, 6784.0, 1600.0, 2681.0, 1594.0, 2693.0, 1633.0, 2633.0, 1572.0, 2646.0, 1554.0, 2727.0, 1576.0, 2674.0, 1559.0, 2703.0, 1630.0, 6820.0, 2689.0, 1548.0, 2597.0, 1534.0, 2676.0, 1616.0, 2692.0, 1533.0, 2686.0, 1592.0, 2633.0, 1586.0, 2638.0, 1592.0, 2718.0, 6833.0, 1613.0, 2701.0, 1568.0, 2649.0, 1617.0, 2664.0, 1610.0, 2693.0, 1583.0, 2670.0, 1542.0, 2650.0, 1547.0, 2744.0, 1635.0, 6810.0, 2685.0, 1587.0, 2678.0, 1598.0, 2698.0, 1640.0, 2704.0, 1556.0, 2659.0, 1552.0, 2662.0, 1596.0, 2695.0, 1562.0, 2674.0, 6847.0, 1587.0, 2651.0, 1532.0, 2741.0, 1561.0, 2620.0, 1580.0, 2644.0, 1569.0, 2689.0, 1570.0, 2756.0, 1585.0, 2690.0, 1592.0, 2662.0, 1618.0],
      "WindowWidth": [14696.0, 14768.0, 6260.0, 4040.0, 6503.0, 4146.0, 6446.0, 3975.0, 6295.0, 4009.0, 6307.0, 4106.0, 6473.0, 4077.0, 6356.0, 4148.0, 6308.0, 14597.0, 4106.0, 6364.0, 4111.0, 6379.0, 4187.0, 6262.0, 4071.0, 6277.0, 4003.0, 6436.0, 4078.0, 6350.0, 4031.0, 6403.0, 4167.0, 14671.0, 6369.0, 4015.0, 6193.0, 3967.0, 6338.0, 4172.0, 6377.0, 3983.0, 6362.0, 4095.0, 6259.0, 4071.0, 6278.0, 4108.0, 6420.0, 14686.0, 4129.0, 6395.0, 4064.0, 6294.0, 4161.0, 6324.0, 4144.0, 6377.0, 4067.0, 6336.0, 3994.0, 6300.0, 3979.0, 6480.0, 4196.0, 14649.0, 6355.0, 4089.0, 6357.0, 4125.0, 6380.0, 4186.0, 6412.0, 4008.0, 6303.0, 4030.0, 6319.0, 4116.0, 6393.0, 4042.0, 6329.0, 14699.0, 4077.0, 6303.0, 3966.0, 6464.0, 4038.0, 6237.0, 4081.0, 6272.0, 4034.0, 6371.0, 4070.0, 6507.0, 4081.0, 6381.0, 4108.0, 6324.0, 4146.0]
    },
    "slices": {}
  }
}