{
  "AcquisitionMatrixPE": 110,
  "AcquisitionNumber": 1,
  "AcquisitionTime": "17:49:13.590000",
  "BandwidthPerPixelPhaseEncode": 12.987,
  "BaseResolution": 110,
  "BodyPartExamined": "BRAIN",
  "CoilCombinationMethod": "Sum of Squares",
  "ConsistencyInfo": "N4_VE11C_LATEST_20160120",
  "ConversionSoftware": "dcm2niix",
  "ConversionSoftwareVersion": "v1.0.20211006",
  "DerivedVendorReportedEchoSpacing": 0.000700001,
  "DeviceSerialNumber": "167006",
  "DiffusionScheme": "Monopolar",
  "DwellTime": 2.7e-06,
  "EchoTime": 0.0816,
  "EchoTrainLength": 83,
  "EffectiveEchoSpacing": 0.000700001,
  "FlipAngle": 78,
  "HeudiconvVersion": "0.5.3.post569+g418601f",
  "ImageComments": "Unaliased MB3/PE3/LB SENSE1",
  "ImageOrientationPatientDICOM": [1, 0, 0, 0, 0.97437, -0.224951],
  "ImageOrientationText": "Tra>Cor(-13.0)",
  "ImageType": [
    "ORIGINAL",
    "PRIMARY",
    "DIFFUSION",
    "NONE",
    "MB",
    "ND",
    "MOSAIC"
],
  "ImagingFrequency": 123.259,
  "InPlanePhaseEncodingDirectionDICOM": "COL",
  "InstitutionAddress": "Chemin Queen-Mary 4565,Montreal,District,CA,H3W 1W5",
  "InstitutionName": "IUGM",
  "InstitutionalDepartmentName": "Department",
  "MRAcquisitionType": "2D",
  "MagneticFieldStrength": 3,
  "Manufacturer": "Siemens",
  "ManufacturersModelName": "Prisma_fit",
  "MatrixCoilMode": "SENSE",
  "Modality": "MR",
  "MultibandAccelerationFactor": 3,
  "PartialFourier": 0.75,
  "PatientPosition": "HFS",
  "PercentPhaseFOV": 100,
  "PercentSampling": 100,
  "PhaseEncodingDirection": "j",
  "PhaseEncodingSteps": 83,
  "PhaseResolution": 1,
  "PixelBandwidth": 1685,
  "ProcedureStepDescription": "anat^generic",
  "ProtocolName": "dMRI_dir98_PA_test_cmrr",
  "PulseSequenceDetails": "%CustomerSeq%\\cmrr_mbep2d_diff",
  "ReceiveCoilActiveElements": "HC1-6",
  "ReceiveCoilName": "HeadNeck_64",
  "ReconMatrixPE": 110,
  "RepetitionTime": 2.334,
  "SAR": 0.106903,
  "ScanOptions": "PFP\\EXT",
  "ScanningSequence": "EP",
  "SequenceName": "ep_b5#1",
  "SequenceVariant": "SK\\SS",
  "SeriesDescription": "dMRI_dir98_PA_test_cmrr",
  "SeriesNumber": 11,
  "ShimSetting": [635, -7224, -8755, 672, 20, 11, 112, 13],
  "SliceThickness": 2,
  "SliceTiming": [0, 1.2175, 0.12, 1.3375, 0.2425, 1.46, 0.365, 1.5825, 0.485, 1.705, 0.6075, 1.825, 0.73, 1.9475, 0.8525, 2.07, 0.9725, 2.19, 1.095, 0, 1.2175, 0.12, 1.3375, 0.2425, 1.46, 0.365, 1.5825, 0.485, 1.705, 0.6075, 1.825, 0.73, 1.9475, 0.8525, 2.07, 0.9725, 2.19, 1.095, 0, 1.2175, 0.12, 1.3375, 0.2425, 1.46, 0.365, 1.5825, 0.485, 1.705, 0.6075, 1.825, 0.73, 1.9475, 0.8525, 2.07, 0.9725, 2.19, 1.095],
  "SoftwareVersions": "syngo MR E11",
  "SpacingBetweenSlices": 2,
  "StationName": "MRC35049",
  "TotalReadoutTime": 0.0763001,
  "TxRefAmp": 204.172,
  "WipMemBlock": "c54e4467-0715-4de6-91af-11aaa13c332a||Sequence: R016 ve11c/master r/e634e98; Dec 19 2017 11:11:25 by eja",
  "dcmmeta_affine": [
    [-2.0, 0.0, 0.0, 109.49686431884766],
    [0.0, 1.9487401247024536, -0.44990211725234985, -84.51458740234375],
    [0.0, 0.44990211725234985, 1.9487401247024536, -36.962162017822266],
    [0.0, 0.0, 0.0, 1.0]
],
  "dcmmeta_reorient_transform": [
    [0.0, -1.0, 0.0, 109.0],
    [1.0, 0.0, 0.0, 0.0],
    [0.0, 0.0, 1.0, 0.0],
    [0.0, 0.0, 0.0, 1.0]
],
  "dcmmeta_shape": [110, 110, 57, 99],
  "dcmmeta_slice_dim": 2,
  "dcmmeta_version": 0.6,
  "global": {
    "const": {
      "AcquisitionMatrix": [110, 0, 0, 110],
      "AngioFlag": "N",
      "BitsAllocated": 16,
      "BitsStored": 16,
      "BodyPartExamined": "BRAIN",
      "CardiacNumberOfImages": 1,
      "Columns": 880,
      "EchoNumbers": 1,
      "EchoTime": 81.6,
      "EchoTrainLength": 83,
      "FlipAngle": 78.0,
      "HighBit": 15,
      "ImageOrientationPatient": [1.0, 0.0, 0.0, 0.0, 0.97437006476663, -0.2249510544245],
      "ImagePositionPatient": [-879.49686384201, -878.16303751832, 185.28947794237],
      "ImageType": [
        "ORIGINAL",
        "PRIMARY",
        "DIFFUSION",
        "NONE",
        "MB",
        "ND",
        "MOSAIC"
],
      "ImagedNucleus": "1H",
      "ImagingFrequency": 123.258892,
      "InPlanePhaseEncodingDirection": "COL",
      "MRAcquisitionType": "2D",
      "MagneticFieldStrength": 3.0,
      "Manufacturer": "SIEMENS",
      "ManufacturerModelName": "Prisma_fit",
      "Modality": "MR",
      "NominalInterval": 0,
      "NumberOfAverages": 1.0,
      "NumberOfPhaseEncodingSteps": 83,
      "PercentPhaseFieldOfView": 100.0,
      "PercentSampling": 100.0,
      "PerformedProcedureStepStartTime": "172839.804000",
      "PhotometricInterpretation": "MONOCHROME2",
      "PixelBandwidth": 1685.0,
      "PixelRepresentation": 0,
      "PixelSpacing": [2.0, 2.0],
      "ProtocolName": "dMRI_dir98_PA_test_cmrr",
      "RepetitionTime": 2334.0,
      "Rows": 880,
      "SAR": 0.10690306772677,
      "SamplesPerPixel": 1,
      "ScanOptions": [
        "PFP",
        "EXT"
],
      "ScanningSequence": "EP",
      "SequenceVariant": [
        "SK",
        "SS"
],
      "SeriesDescription": "dMRI_dir98_PA_test_cmrr",
      "SeriesNumber": 11,
      "SeriesTime": "175006.429000",
      "SliceLocation": -17.003180623067,
      "SliceThickness": 2.0,
      "SmallestImagePixelValue": 0,
      "SoftwareVersions": "syngo MR E11",
      "SpacingBetweenSlices": 2.0000000118613,
      "SpecificCharacterSet": "ISO_IR 100",
      "StudyID": "1",
      "StudyTime": "172839.657000",
      "TransmitCoilName": "Body",
      "VariableFlipAngleFlag": "N",
      "WindowCenterWidthExplanation": "Algo1",
      "dBdt": 0.0},
    "slices": {}
  },
  "time": {
    "samples": {
      "AcquisitionNumber": [1, 2, 3, 4, 5, 6, 7, 8, 9, 10, 11, 12, 13, 14, 15, 16, 17, 18, 19, 20, 21, 22, 23, 24, 25, 26, 27, 28, 29, 30, 31, 32, 33, 34, 35, 36, 37, 38, 39, 40, 41, 42, 43, 44, 45, 46, 47, 48, 49, 50, 51, 52, 53, 54, 55, 56, 57, 58, 59, 60, 61, 62, 63, 64, 65, 66, 67, 68, 69, 70, 71, 72, 73, 74, 75, 76, 77, 78, 79, 80, 81, 82, 83, 84, 85, 86, 87, 88, 89, 90, 91, 92, 93, 94, 95, 96, 97, 98, 99],
      "AcquisitionTime": ["174913.590000", "174915.922500", "174918.257500", "174920.590000", "174922.925000", "174925.260000", "174927.592500", "174929.927500", "174932.260000", "174934.595000", "174936.930000", "174939.262500", "174941.597500", "174943.930000", "174946.265000", "174948.600000", "174950.932500", "174953.267500", "174955.600000", "174957.935000", "175000.270000", "175002.602500", "175004.937500", "175007.270000", "175009.605000", "175011.940000", "175014.272500", "175016.607500", "175018.940000", "175021.275000", "175023.610000", "175025.942500", "175028.277500", "175030.610000", "175032.945000", "175035.280000", "175037.612500", "175039.947500", "175042.280000", "175044.615000", "175046.950000", "175049.282500", "175051.617500", "175053.950000", "175056.285000", "175058.620000", "175100.952500", "175103.287500", "175105.620000", "175107.955000", "175110.290000", "175112.622500", "175114.957500", "175117.290000", "175119.625000", "175121.960000", "175124.292500", "175126.627500", "175128.960000", "175131.295000", "175133.630000", "175135.962500", "175138.297500", "175140.630000", "175142.965000", "175145.300000", "175147.632500", "175149.967500", "175152.300000", "175154.635000", "175156.970000", "175159.302500", "175201.637500", "175203.970000", "175206.305000", "175208.640000", "175210.972500", "175213.307500", "175215.640000", "175217.975000", "175220.310000", "175222.642500", "175224.977500", "175227.310000", "175229.645000", "175231.980000", "175234.312500", "175236.647500", "175238.980000", "175241.315000", "175243.650000", "175245.982500", "175248.317500", "175250.650000", "175252.985000", "175255.320000", "175257.652500", "175259.987500", "175302.320000"],
      "ContentTime": ["175006.432000", "175006.436000", "175006.439000", "175006.442000", "175006.445000", "175006.448000", "175006.451000", "175006.454000", "175006.457000", "175006.472000", "175006.475000", "175006.478000", "175006.481000", "175006.484000", "175006.493000", "175006.496000", "175006.499000", "175006.502000", "175006.506000", "175006.509000", "175006.518000", "175006.521000", "175106.403000", "175106.406000", "175106.409000", "175106.413000", "175106.416000", "175106.419000", "175106.422000", "175106.425000", "175106.428000", "175106.431000", "175106.435000", "175106.438000", "175106.441000", "175106.444000", "175106.447000", "175106.450000", "175106.456000", "175106.459000", "175106.462000", "175106.465000", "175106.468000", "175106.471000", "175106.474000", "175106.477000", "175106.480000", "175106.483000", "175206.403000", "175206.407000", "175206.410000", "175206.413000", "175206.416000", "175206.420000", "175206.423000", "175206.426000", "175206.429000", "175206.433000", "175206.436000", "175206.440000", "175206.444000", "175206.447000", "175206.451000", "175206.456000", "175206.461000", "175206.465000", "175206.470000", "175206.474000", "175206.477000", "175206.480000", "175206.483000", "175206.486000", "175206.490000", "175306.403000", "175306.406000", "175306.409000", "175306.413000", "175306.416000", "175306.419000", "175306.428000", "175306.431000", "175306.434000", "175306.437000", "175306.441000", "175306.444000", "175306.447000", "175306.450000", "175306.453000", "175306.456000", "175306.459000", "175306.462000", "175306.465000", "175306.468000", "175306.471000", "175306.474000", "175306.477000", "175306.480000", "175306.483000", "175306.486000"],
      "InstanceCreationTime": ["175006.432000", "175006.436000", "175006.439000", "175006.442000", "175006.445000", "175006.448000", "175006.451000", "175006.454000", "175006.457000", "175006.472000", "175006.475000", "175006.478000", "175006.481000", "175006.484000", "175006.493000", "175006.496000", "175006.499000", "175006.502000", "175006.506000", "175006.509000", "175006.518000", "175006.521000", "175106.403000", "175106.406000", "175106.409000", "175106.413000", "175106.416000", "175106.419000", "175106.422000", "175106.425000", "175106.428000", "175106.431000", "175106.435000", "175106.438000", "175106.441000", "175106.444000", "175106.447000", "175106.450000", "175106.456000", "175106.459000", "175106.462000", "175106.465000", "175106.468000", "175106.471000", "175106.474000", "175106.477000", "175106.480000", "175106.483000", "175206.403000", "175206.407000", "175206.410000", "175206.413000", "175206.416000", "175206.420000", "175206.423000", "175206.426000", "175206.429000", "175206.433000", "175206.436000", "175206.440000", "175206.444000", "175206.447000", "175206.451000", "175206.456000", "175206.461000", "175206.465000", "175206.470000", "175206.474000", "175206.477000", "175206.480000", "175206.483000", "175206.486000", "175206.490000", "175306.403000", "175306.406000", "175306.409000", "175306.413000", "175306.416000", "175306.419000", "175306.428000", "175306.431000", "175306.434000", "175306.437000", "175306.441000", "175306.444000", "175306.447000", "175306.450000", "175306.453000", "175306.456000", "175306.459000", "175306.462000", "175306.465000", "175306.468000", "175306.471000", "175306.474000", "175306.477000", "175306.480000", "175306.483000", "175306.486000"],
      "InstanceNumber": [1, 2, 3, 4, 5, 6, 7, 8, 9, 10, 11, 12, 13, 14, 15, 16, 17, 18, 19, 20, 21, 22, 23, 24, 25, 26, 27, 28, 29, 30, 31, 32, 33, 34, 35, 36, 37, 38, 39, 40, 41, 42, 43, 44, 45, 46, 47, 48, 49, 50, 51, 52, 53, 54, 55, 56, 57, 58, 59, 60, 61, 62, 63, 64, 65, 66, 67, 68, 69, 70, 71, 72, 73, 74, 75, 76, 77, 78, 79, 80, 81, 82, 83, 84, 85, 86, 87, 88, 89, 90, 91, 92, 93, 94, 95, 96, 97, 98, 99],
      "LargestImagePixelValue": [48165, 47806, 15270, 6402, 14750, 7022, 13625, 7082, 14532, 6260, 15628, 6965, 14504, 7341, 14732, 6794, 14120, 46313, 6985, 14272, 5968, 15949, 8461, 15494, 7211, 15204, 6495, 15572, 6424, 14720, 6644, 15196, 7806, 47357, 15869, 6793, 15446, 6693, 15047, 6180, 15889, 6780, 14115, 6904, 14835, 5676, 16141, 6962, 15931, 48667, 7343, 15233, 7255, 15371, 7318, 15257, 6902, 14329, 6035, 14726, 6697, 14806, 6900, 14684, 7431, 46841, 15992, 7159, 14782, 5768, 15990, 7822, 14919, 6436, 15239, 6877, 15443, 7055, 14521, 6224, 14126, 47232, 6752, 14638, 6181, 15261, 6950, 16230, 6613, 15308, 6900, 16345, 6645, 15044, 6976, 13972, 6510, 15151, 7552],
      "SequenceName": [
 "ep_b5#1",
 "ep_b5#1",
 "ep_b1490#2",
 "ep_b2990#3",
 "ep_b1495#4",
 "ep_b3005#5",
 "ep_b1500#6",
 "ep_b2990#7",
 "ep_b1495#8",
 "ep_b3005#9",
 "ep_b1490#10",
 "ep_b2995#11",
 "ep_b1490#12",
 "ep_b2990#13",
 "ep_b1500#14",
 "ep_b2985#15",
 "ep_b1500#16",
 "ep_b5#17",
 "ep_b3005#18",
 "ep_b1490#19",
 "ep_b2995#20",
 "ep_b1500#21",
 "ep_b3000#22",
 "ep_b1495#23",
 "ep_b3005#24",
 "ep_b1490#25",
 "ep_b2985#26",
 "ep_b1505#27",
 "ep_b2990#28",
 "ep_b1500#29",
 "ep_b3000#30",
 "ep_b1490#31",
 "ep_b3000#32",
 "ep_b5#33",
 "ep_b1505#34",
 "ep_b3000#35",
 "ep_b1495#36",
 "ep_b2985#37",
 "ep_b1495#38",
 "ep_b2995#39",
 "ep_b1500#40",
 "ep_b2995#41",
 "ep_b1500#42",
 "ep_b2990#43",
 "ep_b1495#44",
 "ep_b2995#45",
 "ep_b1495#46",
 "ep_b3000#47",
 "ep_b1490#48",
 "ep_b5#49",
 "ep_b3005#50",
 "ep_b1500#51",
 "ep_b2990#52",
 "ep_b1505#53",
 "ep_b2995#54",
 "ep_b1495#55",
 "ep_b2990#56",
 "ep_b1490#57",
 "ep_b2995#58",
 "ep_b1500#59",
 "ep_b3000#60",
 "ep_b1500#61",
 "ep_b2985#62",
 "ep_b1500#63",
 "ep_b2990#64",
 "ep_b5#65",
 "ep_b1505#66",
 "ep_b3005#67",
 "ep_b1495#68",
 "ep_b3000#69",
 "ep_b1505#70",
 "ep_b3005#71",
 "ep_b1500#72",
 "ep_b3000#73",
 "ep_b1495#74",
 "ep_b2995#75",
 "ep_b1495#76",
 "ep_b2995#77",
 "ep_b1500#78",
 "ep_b3000#79",
 "ep_b1495#80",
 "ep_b5#81",
 "ep_b2990#82",
 "ep_b1500#83",
 "ep_b2985#84",
 "ep_b1495#85",
 "ep_b2995#86",
 "ep_b1495#87",
 "ep_b2995#88",
 "ep_b1490#89",
 "ep_b2985#90",
 "ep_b1500#91",
 "ep_b3000#92",
 "ep_b1490#93",
 "ep_b3005#94",
 "ep_b1495#95",
 "ep_b2990#96",
 "ep_b1500#97",
 "ep_b3000#98"
],
      "TriggerTime": [13295.0, 15630.0, 17965.0, 20297.5, 22632.5, 24965.0, 27300.0, 29635.0, 31967.5, 34302.5, 36635.0, 38970.0, 41305.0, 43637.5, 45972.5, 48305.0, 50640.0, 52975.0, 55307.5, 57642.5, 59975.0, 62310.0, 64645.0, 66977.5, 69312.5, 71645.0, 73980.0, 76315.0, 78647.5, 80982.5, 83315.0, 85650.0, 87985.0, 90317.5, 92652.5, 94985.0, 97320.0, 99655.0, 101987.5, 104322.5, 106655.0, 108990.0, 111325.0, 113657.5, 115992.5, 118325.0, 120660.0, 122995.0, 125327.5, 127662.5, 129995.0, 132330.0, 134665.0, 136997.5, 139332.5, 141665.0, 144000.0, 146335.0, 148667.5, 151002.5, 153335.0, 155670.0, 158005.0, 160337.5, 162672.5, 165005.0, 167340.0, 169675.0, 172007.5, 174342.5, 176675.0, 179010.0, 181345.0, 183677.5, 186012.5, 188345.0, 190680.0, 193015.0, 195347.5, 197682.5, 200015.0, 202350.0, 204685.0, 207017.5, 209352.5, 211685.0, 214020.0, 216355.0, 218687.5, 221022.5, 223355.0, 225690.0, 228025.0, 230357.5, 232692.5, 235025.0, 237360.0, 239695.0, 242027.5],
      "WindowCenter": [6983.0, 6990.0, 2765.0, 1643.0, 2740.0, 1677.0, 2731.0, 1673.0, 2738.0, 1597.0, 2753.0, 1704.0, 2777.0, 1690.0, 2718.0, 1650.0, 2695.0, 6929.0, 1660.0, 2767.0, 1627.0, 2805.0, 1720.0, 2765.0, 1687.0, 2737.0, 1616.0, 2757.0, 1633.0, 2733.0, 1598.0, 2753.0, 1707.0, 6897.0, 2750.0, 1617.0, 2761.0, 1645.0, 2772.0, 1656.0, 2818.0, 1676.0, 2709.0, 1693.0, 2769.0, 1600.0, 2802.0, 1661.0, 2760.0, 6915.0, 1664.0, 2795.0, 1659.0, 2721.0, 1676.0, 2722.0, 1691.0, 2778.0, 1586.0, 2738.0, 1603.0, 2706.0, 1645.0, 2762.0, 1688.0, 6942.0, 2738.0, 1673.0, 2725.0, 1630.0, 2803.0, 1703.0, 2748.0, 1600.0, 2751.0, 1634.0, 2751.0, 1698.0, 2753.0, 1585.0, 2747.0, 6856.0, 1676.0, 2725.0, 1614.0, 2762.0, 1675.0, 2763.0, 1684.0, 2734.0, 1633.0, 2766.0, 1674.0, 2761.0, 1627.0, 2721.0, 1638.0, 2676.0, 1707.0],
      "WindowWidth": [15015.0, 15032.0, 6583.0, 4215.0, 6528.0, 4291.0, 6492.0, 4283.0, 6524.0, 4106.0, 6559.0, 4346.0, 6600.0, 4319.0, 6468.0, 4244.0, 6438.0, 14900.0, 4249.0, 6589.0, 4168.0, 6656.0, 4388.0, 6576.0, 4313.0, 6522.0, 4160.0, 6573.0, 4204.0, 6515.0, 4110.0, 6552.0, 4357.0, 14834.0, 6552.0, 4161.0, 6569.0, 4218.0, 6579.0, 4233.0, 6688.0, 4288.0, 6457.0, 4325.0, 6580.0, 4112.0, 6650.0, 4258.0, 6564.0, 14864.0, 4264.0, 6642.0, 4249.0, 6485.0, 4289.0, 6495.0, 4315.0, 6607.0, 4084.0, 6518.0, 4136.0, 6448.0, 4218.0, 6550.0, 4307.0, 14921.0, 6531.0, 4284.0, 6505.0, 4174.0, 6653.0, 4349.0, 6527.0, 4114.0, 6554.0, 4204.0, 6551.0, 4327.0, 6562.0, 4084.0, 6536.0, 14754.0, 4288.0, 6499.0, 4155.0, 6574.0, 4292.0, 6568.0, 4300.0, 6517.0, 4197.0, 6581.0, 4282.0, 6560.0, 4179.0, 6479.0, 4222.0, 6394.0, 4356.0]
    },
    "slices": {}
  }
}