{
  "AcquisitionMatrixPE": 110,
  "AcquisitionNumber": 1,
  "AcquisitionTime": "13:31:46.705000",
  "BandwidthPerPixelPhaseEncode": 12.987,
  "BaseResolution": 110,
  "BodyPartExamined": "BRAIN",
  "CoilCombinationMethod": "Sum of Squares",
  "ConsistencyInfo": "N4_VE11C_LATEST_20160120",
  "ConversionSoftware": "dcm2niix",
  "ConversionSoftwareVersion": "v1.0.20220505",
  "DerivedVendorReportedEchoSpacing": 0.000700001,
  "DeviceSerialNumber": "167006",
  "DiffusionScheme": "Monopolar",
  "DwellTime": 2.7e-06,
  "EchoTime": 0.0768,
  "EchoTrainLength": 83,
  "EffectiveEchoSpacing": 0.000700001,
  "FlipAngle": 78,
  "HeudiconvVersion": "0.5.3.post811+g6206e14",
  "ImageComments": "Unaliased MB3/PE3/LB SENSE1+",
  "ImageOrientationPatientDICOM": [1, 0, 0, 0, 0.976296, -0.21644],
  "ImageOrientationText": "Tra>Cor(-12.5)",
  "ImageType": [
    "ORIGINAL",
    "PRIMARY",
    "DIFFUSION",
    "NONE",
    "MB",
    "ND",
    "MOSAIC"
],
  "ImagingFrequency": 123.259,
  "InPlanePhaseEncodingDirectionDICOM": "COL",
  "InstitutionAddress": "Chemin Queen-Mary 4565,Montreal,District,CA,H3W 1W5",
  "InstitutionName": "IUGM",
  "InstitutionalDepartmentName": "Department",
  "MRAcquisitionType": "2D",
  "MagneticFieldStrength": 3,
  "Manufacturer": "Siemens",
  "ManufacturersModelName": "Prisma_fit",
  "MatrixCoilMode": "SENSE",
  "Modality": "MR",
  "MultibandAccelerationFactor": 3,
  "PartialFourier": 0.75,
  "PatientPosition": "HFS",
  "PercentPhaseFOV": 100,
  "PercentSampling": 100,
  "PhaseEncodingDirection": "j",
  "PhaseEncodingSteps": 83,
  "PhaseResolution": 1,
  "PixelBandwidth": 1685,
  "ProcedureStepDescription": "anat^generic",
  "ProtocolName": "dMRI_dir106_PA_test_cmrr",
  "PulseSequenceDetails": "%CustomerSeq%\\cmrr_mbep2d_diff",
  "ReceiveCoilActiveElements": "HC1-6",
  "ReceiveCoilName": "HeadNeck_64",
  "ReconMatrixPE": 110,
  "RepetitionTime": 2.243,
  "SAR": 0.115625,
  "ScanOptions": "PFP\\EXT",
  "ScanningSequence": "EP",
  "SequenceName": "ep_b0",
  "SequenceVariant": "SK\\SS",
  "SeriesDescription": "dMRI_dir106_PA_test_cmrr",
  "SeriesNumber": 13,
  "ShimSetting": [637, -7227, -8807, 652, 56, 13, 60, 0],
  "SliceThickness": 2,
  "SliceTiming": [0, 1.17, 0.1175, 1.2875, 0.235, 1.405, 0.35, 1.52, 0.4675, 1.6375, 0.585, 1.755, 0.7025, 1.8725, 0.82, 1.99, 0.935, 2.105, 1.0525, 0, 1.17, 0.1175, 1.2875, 0.235, 1.405, 0.35, 1.52, 0.4675, 1.6375, 0.585, 1.755, 0.7025, 1.8725, 0.82, 1.99, 0.935, 2.105, 1.0525, 0, 1.17, 0.1175, 1.2875, 0.235, 1.405, 0.35, 1.52, 0.4675, 1.6375, 0.585, 1.755, 0.7025, 1.8725, 0.82, 1.99, 0.935, 2.105, 1.0525],
  "SoftwareVersions": "syngo MR E11",
  "SpacingBetweenSlices": 2,
  "StationName": "MRC35049",
  "TotalReadoutTime": 0.0763001,
  "TxRefAmp": 207.651,
  "WipMemBlock": "9dde07af-5f19-4e76-82a1-dbece6727a4c||Sequence: R017 ve11c/master r/75a17815+; Jun 28 2022 16:41:33 by eja",
  "dcmmeta_affine": [
    [-2.0, 0.0, 0.0, 109.49686431884766],
    [0.0, 1.9525920152664185, -0.432879239320755, -86.3609390258789],
    [0.0, 0.432879239320755, 1.9525920152664185, -51.487884521484375],
    [0.0, 0.0, 0.0, 1.0]
],
  "dcmmeta_reorient_transform": [
    [0.0, -1.0, 0.0, 109.0],
    [1.0, 0.0, 0.0, 0.0],
    [0.0, 0.0, 1.0, 0.0],
    [0.0, 0.0, 0.0, 1.0]
],
  "dcmmeta_shape": [110, 110, 57, 107],
  "dcmmeta_slice_dim": 2,
  "dcmmeta_version": 0.6,
  "global": {
    "const": {
      "AcquisitionMatrix": [110, 0, 0, 110],
      "AngioFlag": "N",
      "BitsAllocated": 16,
      "BitsStored": 16,
      "BodyPartExamined": "BRAIN",
      "CardiacNumberOfImages": 1,
      "Columns": 880,
      "EchoNumbers": 1,
      "EchoTime": 76.8,
      "EchoTrainLength": 83,
      "FlipAngle": 78.0,
      "HighBit": 15,
      "ImageOrientationPatient": [1.0, 0.0, 0.0, 0.0, 0.97629600560084, -0.2164396207903],
      "ImagePositionPatient": [-879.49686384201, -878.21951591934, 162.35446242584],
      "ImageType": [
        "ORIGINAL",
        "PRIMARY",
        "DIFFUSION",
        "NONE",
        "MB",
        "ND",
        "MOSAIC"
],
      "ImagedNucleus": "1H",
      "ImagingFrequency": 123.258809,
      "InPlanePhaseEncodingDirection": "COL",
      "MRAcquisitionType": "2D",
      "MagneticFieldStrength": 3.0,
      "Manufacturer": "SIEMENS",
      "ManufacturerModelName": "Prisma_fit",
      "Modality": "MR",
      "NominalInterval": 0,
      "NumberOfAverages": 1.0,
      "NumberOfPhaseEncodingSteps": 83,
      "PercentPhaseFieldOfView": 100.0,
      "PercentSampling": 100.0,
      "PerformedProcedureStepStartTime": "130331.404000",
      "PhotometricInterpretation": "MONOCHROME2",
      "PixelBandwidth": 1685.0,
      "PixelRepresentation": 0,
      "PixelSpacing": [2.0, 2.0],
      "ProtocolName": "dMRI_dir106_PA_test_cmrr",
      "RepetitionTime": 2243.0,
      "Rows": 880,
      "SAR": 0.11562465557784,
      "SamplesPerPixel": 1,
      "ScanOptions": [
        "PFP",
        "EXT"
],
      "ScanningSequence": "EP",
      "SequenceVariant": [
        "SK",
        "SS"
],
      "SeriesDescription": "dMRI_dir106_PA_test_cmrr",
      "SeriesNumber": 13,
      "SeriesTime": "133158.446000",
      "SliceLocation": -31.575485838408,
      "SliceThickness": 2.0,
      "SmallestImagePixelValue": 0,
      "SoftwareVersions": "syngo MR E11",
      "SpacingBetweenSlices": 2.0000000154981,
      "SpecificCharacterSet": "ISO_IR 100",
      "StudyID": "1",
      "StudyTime": "130331.314000",
      "TransmitCoilName": "Body",
      "VariableFlipAngleFlag": "N",
      "WindowCenterWidthExplanation": "Algo1",
      "dBdt": 0.0},
    "slices": {}
  },
  "time": {
    "samples": {
      "AcquisitionNumber": [1, 2, 3, 4, 5, 6, 7, 8, 9, 10, 11, 12, 13, 14, 15, 16, 17, 18, 19, 20, 21, 22, 23, 24, 25, 26, 27, 28, 29, 30, 31, 32, 33, 34, 35, 36, 37, 38, 39, 40, 41, 42, 43, 44, 45, 46, 47, 48, 49, 50, 51, 52, 53, 54, 55, 56, 57, 58, 59, 60, 61, 62, 63, 64, 65, 66, 67, 68, 69, 70, 71, 72, 73, 74, 75, 76, 77, 78, 79, 80, 81, 82, 83, 84, 85, 86, 87, 88, 89, 90, 91, 92, 93, 94, 95, 96, 97, 98, 99, 100, 101, 102, 103, 104, 105, 106, 107],
      "AcquisitionTime": ["133146.705000", "133148.947500", "133151.190000", "133153.435000", "133155.677500", "133157.920000", "133200.162500", "133202.405000", "133204.650000", "133206.892500", "133209.135000", "133211.377500", "133213.620000", "133215.865000", "133218.107500", "133220.350000", "133222.592500", "133224.835000", "133227.080000", "133229.322500", "133231.565000", "133233.807500", "133236.050000", "133238.295000", "133240.537500", "133242.780000", "133245.022500", "133247.265000", "133249.510000", "133251.752500", "133253.995000", "133256.237500", "133258.480000", "133300.725000", "133302.967500", "133305.210000", "133307.452500", "133309.695000", "133311.940000", "133314.182500", "133316.425000", "133318.667500", "133320.910000", "133323.155000", "133325.397500", "133327.640000", "133329.882500", "133332.125000", "133334.370000", "133336.612500", "133338.855000", "133341.097500", "133343.340000", "133345.585000", "133347.827500", "133350.070000", "133352.312500", "133354.555000", "133356.800000", "133359.042500", "133401.285000", "133403.527500", "133405.770000", "133408.015000", "133410.257500", "133412.500000", "133414.742500", "133416.985000", "133419.230000", "133421.472500", "133423.715000", "133425.957500", "133428.200000", "133430.445000", "133432.687500", "133434.930000", "133437.172500", "133439.415000", "133441.660000", "133443.902500", "133446.145000", "133448.387500", "133450.630000", "133452.875000", "133455.117500", "133457.360000", "133459.602500", "133501.845000", "133504.090000", "133506.332500", "133508.575000", "133510.817500", "133513.060000", "133515.305000", "133517.547500", "133519.790000", "133522.032500", "133524.275000", "133526.520000", "133528.762500", "133531.005000", "133533.247500", "133535.490000", "133537.735000", "133539.977500", "133542.220000", "133544.462500"],
      "ContentTime": ["133158.449000", "133158.453000", "133158.456000", "133158.459000", "133158.462000", "133258.421000", "133258.424000", "133258.428000", "133258.431000", "133258.434000", "133258.443000", "133258.446000", "133258.449000", "133258.452000", "133258.455000", "133258.459000", "133258.462000", "133258.465000", "133258.468000", "133258.471000", "133258.474000", "133258.477000", "133258.481000", "133258.484000", "133258.487000", "133258.490000", "133258.493000", "133258.496000", "133258.499000", "133258.502000", "133258.506000", "133358.421000", "133358.425000", "133358.428000", "133358.431000", "133358.434000", "133358.437000", "133358.440000", "133358.443000", "133358.446000", "133358.449000", "133358.452000", "133358.456000", "133358.459000", "133358.462000", "133358.465000", "133358.468000", "133358.471000", "133358.474000", "133358.478000", "133358.481000", "133358.484000", "133358.487000", "133358.490000", "133358.493000", "133358.496000", "133358.500000", "133358.503000", "133458.421000", "133458.424000", "133458.428000", "133458.431000", "133458.434000", "133458.437000", "133458.440000", "133458.443000", "133458.446000", "133458.450000", "133458.453000", "133458.456000", "133458.459000", "133458.462000", "133458.465000", "133458.468000", "133458.471000", "133458.475000", "133458.478000", "133458.481000", "133458.484000", "133458.487000", "133458.490000", "133458.493000", "133458.496000", "133458.500000", "133458.503000", "133548.903000", "133548.907000", "133548.911000", "133548.915000", "133548.919000", "133548.923000", "133548.927000", "133548.930000", "133548.934000", "133548.938000", "133548.944000", "133548.948000", "133548.953000", "133548.957000", "133548.962000", "133548.966000", "133548.970000", "133548.973000", "133548.976000", "133548.980000", "133548.983000", "133548.987000"],
      "InstanceCreationTime": ["133158.449000", "133158.453000", "133158.456000", "133158.459000", "133158.462000", "133258.421000", "133258.424000", "133258.428000", "133258.431000", "133258.434000", "133258.443000", "133258.446000", "133258.449000", "133258.452000", "133258.455000", "133258.459000", "133258.462000", "133258.465000", "133258.468000", "133258.471000", "133258.474000", "133258.477000", "133258.481000", "133258.484000", "133258.487000", "133258.490000", "133258.493000", "133258.496000", "133258.499000", "133258.502000", "133258.506000", "133358.421000", "133358.425000", "133358.428000", "133358.431000", "133358.434000", "133358.437000", "133358.440000", "133358.443000", "133358.446000", "133358.449000", "133358.452000", "133358.456000", "133358.459000", "133358.462000", "133358.465000", "133358.468000", "133358.471000", "133358.474000", "133358.478000", "133358.481000", "133358.484000", "133358.487000", "133358.490000", "133358.493000", "133358.496000", "133358.500000", "133358.503000", "133458.421000", "133458.424000", "133458.428000", "133458.431000", "133458.434000", "133458.437000", "133458.440000", "133458.443000", "133458.446000", "133458.450000", "133458.453000", "133458.456000", "133458.459000", "133458.462000", "133458.465000", "133458.468000", "133458.471000", "133458.475000", "133458.478000", "133458.481000", "133458.484000", "133458.487000", "133458.490000", "133458.493000", "133458.496000", "133458.500000", "133458.503000", "133548.903000", "133548.907000", "133548.911000", "133548.915000", "133548.919000", "133548.923000", "133548.927000", "133548.930000", "133548.934000", "133548.938000", "133548.944000", "133548.948000", "133548.953000", "133548.957000", "133548.962000", "133548.966000", "133548.970000", "133548.973000", "133548.976000", "133548.980000", "133548.983000", "133548.987000"],
      "InstanceNumber": [1, 2, 3, 4, 5, 6, 7, 8, 9, 10, 11, 12, 13, 14, 15, 16, 17, 18, 19, 20, 21, 22, 23, 24, 25, 26, 27, 28, 29, 30, 31, 32, 33, 34, 35, 36, 37, 38, 39, 40, 41, 42, 43, 44, 45, 46, 47, 48, 49, 50, 51, 52, 53, 54, 55, 56, 57, 58, 59, 60, 61, 62, 63, 64, 65, 66, 67, 68, 69, 70, 71, 72, 73, 74, 75, 76, 77, 78, 79, 80, 81, 82, 83, 84, 85, 86, 87, 88, 89, 90, 91, 92, 93, 94, 95, 96, 97, 98, 99, 100, 101, 102, 103, 104, 105, 106, 107],
      "LargestImagePixelValue": [54330, 55085, 20117, 11023, 19809, 20911, 33047, 11649, 10562, 10559, 20634, 34802, 10519, 10569, 11336, 10606, 19214, 10736, 11397, 10956, 11018, 65535, 20321, 10949, 20659, 20017, 10843, 10260, 10907, 10957, 33787, 10266, 22182, 10695, 10287, 34530, 12048, 11203, 19902, 11126, 10700, 58211, 11215, 10648, 11076, 35728, 20865, 11161, 10445, 20160, 10857, 20665, 19488, 12034, 35187, 19983, 10386, 20640, 11594, 9927, 18926, 49012, 19678, 10453, 10738, 10445, 11221, 33952, 20214, 19866, 9919, 11985, 11491, 11221, 20698, 10488, 11451, 11048, 20276, 19265, 11491, 50930, 20575, 11933, 10169, 20293, 19691, 10476, 20191, 11936, 11196, 10096, 21319, 10718, 9682, 12066, 34988, 19534, 10365, 19998, 19948, 50104, 10107, 10766, 19754, 10286, 11207],
      "SequenceName": [
 "ep_b0",
 "ep_b0",
 "ep_b1000#2",
 "ep_b2000#3",
 "ep_b1000#4",
 "ep_b1000#5",
 "ep_b300#6",
 "ep_b2000#7",
 "ep_b2000#8",
 "ep_b2000#9",
 "ep_b1000#10",
 "ep_b300#11",
 "ep_b2000#12",
 "ep_b2000#13",
 "ep_b2000#14",
 "ep_b2000#15",
 "ep_b1000#16",
 "ep_b2000#17",
 "ep_b2000#18",
 "ep_b2000#19",
 "ep_b2000#20",
 "ep_b0",
 "ep_b1000#22",
 "ep_b2000#23",
 "ep_b1000#24",
 "ep_b1000#25",
 "ep_b2000#26",
 "ep_b2000#27",
 "ep_b2000#28",
 "ep_b2000#29",
 "ep_b300#30",
 "ep_b2000#31",
 "ep_b1000#32",
 "ep_b2000#33",
 "ep_b2000#34",
 "ep_b300#35",
 "ep_b2000#36",
 "ep_b2000#37",
 "ep_b1000#38",
 "ep_b2000#39",
 "ep_b2000#40",
 "ep_b0",
 "ep_b2000#42",
 "ep_b2000#43",
 "ep_b2000#44",
 "ep_b300#45",
 "ep_b1000#46",
 "ep_b2000#47",
 "ep_b2000#48",
 "ep_b1000#49",
 "ep_b2000#50",
 "ep_b1000#51",
 "ep_b1000#52",
 "ep_b2000#53",
 "ep_b300#54",
 "ep_b1000#55",
 "ep_b2000#56",
 "ep_b1000#57",
 "ep_b2000#58",
 "ep_b2000#59",
 "ep_b1000#60",
 "ep_b0",
 "ep_b1000#62",
 "ep_b2000#63",
 "ep_b2000#64",
 "ep_b2000#65",
 "ep_b2000#66",
 "ep_b300#67",
 "ep_b1000#68",
 "ep_b1000#69",
 "ep_b2000#70",
 "ep_b2000#71",
 "ep_b2000#72",
 "ep_b2000#73",
 "ep_b1000#74",
 "ep_b2000#75",
 "ep_b2000#76",
 "ep_b2000#77",
 "ep_b1000#78",
 "ep_b1000#79",
 "ep_b2000#80",
 "ep_b0",
 "ep_b1000#82",
 "ep_b2000#83",
 "ep_b2000#84",
 "ep_b1000#85",
 "ep_b1000#86",
 "ep_b2000#87",
 "ep_b1000#88",
 "ep_b2000#89",
 "ep_b2000#90",
 "ep_b2000#91",
 "ep_b1000#92",
 "ep_b2000#93",
 "ep_b2000#94",
 "ep_b2000#95",
 "ep_b300#96",
 "ep_b1000#97",
 "ep_b2000#98",
 "ep_b1000#99",
 "ep_b1000#100",
 "ep_b0",
 "ep_b2000#102",
 "ep_b2000#103",
 "ep_b1000#104",
 "ep_b2000#105",
 "ep_b2000#106"
],
      "TriggerTime": [12837.5, 15080.0, 17322.5, 19567.5, 21810.0, 24052.5, 26295.0, 28537.5, 30782.5, 33025.0, 35267.5, 37510.0, 39752.5, 41997.5, 44240.0, 46482.5, 48725.0, 50967.5, 53212.5, 55455.0, 57697.5, 59940.0, 62182.5, 64427.5, 66670.0, 68912.5, 71155.0, 73397.5, 75642.5, 77885.0, 80127.5, 82370.0, 84612.5, 86857.5, 89100.0, 91342.5, 93585.0, 95827.5, 98072.5, 100315.0, 102557.5, 104800.0, 107042.5, 109287.5, 111530.0, 113772.5, 116015.0, 118257.5, 120502.5, 122745.0, 124987.5, 127230.0, 129472.5, 131717.5, 133960.0, 136202.5, 138445.0, 140687.5, 142932.5, 145175.0, 147417.5, 149660.0, 151902.5, 154147.5, 156390.0, 158632.5, 160875.0, 163117.5, 165362.5, 167605.0, 169847.5, 172090.0, 174332.5, 176577.5, 178820.0, 181062.5, 183305.0, 185547.5, 187792.5, 190035.0, 192277.5, 194520.0, 196762.5, 199007.5, 201250.0, 203492.5, 205735.0, 207977.5, 210222.5, 212465.0, 214707.5, 216950.0, 219192.5, 221437.5, 223680.0, 225922.5, 228165.0, 230407.5, 232652.5, 234895.0, 237137.5, 239380.0, 241622.5, 243867.5, 246110.0, 248352.5, 250595.0],
      "WindowCenter": [7205.0, 7208.0, 3620.0, 2336.0, 3594.0, 3566.0, 5420.0, 2342.0, 2340.0, 2353.0, 3589.0, 5383.0, 2302.0, 2291.0, 2371.0, 2342.0, 3564.0, 2298.0, 2363.0, 2338.0, 2311.0, 7189.0, 3596.0, 2356.0, 3607.0, 3588.0, 2343.0, 2336.0, 2297.0, 2309.0, 5390.0, 2309.0, 3583.0, 2344.0, 2308.0, 5397.0, 2379.0, 2325.0, 3554.0, 2371.0, 2322.0, 7149.0, 2381.0, 2336.0, 2338.0, 5373.0, 3581.0, 2291.0, 2349.0, 3519.0, 2344.0, 3567.0, 3556.0, 2366.0, 5378.0, 3519.0, 2291.0, 3566.0, 2314.0, 2353.0, 3565.0, 7098.0, 3579.0, 2300.0, 2354.0, 2313.0, 2325.0, 5426.0, 3555.0, 3579.0, 2325.0, 2378.0, 2374.0, 2344.0, 3529.0, 2328.0, 2356.0, 2327.0, 3525.0, 3559.0, 2338.0, 7092.0, 3551.0, 2346.0, 2302.0, 3577.0, 3583.0, 2295.0, 3534.0, 2341.0, 2354.0, 2279.0, 3571.0, 2324.0, 2340.0, 2382.0, 5400.0, 3583.0, 2317.0, 3577.0, 3567.0, 7084.0, 2296.0, 2302.0, 3583.0, 2281.0, 2374.0],
      "WindowWidth": [15470.0, 15461.0, 8283.0, 5694.0, 8243.0, 8186.0, 11830.0, 5708.0, 5695.0, 5720.0, 8235.0, 11760.0, 5625.0, 5588.0, 5771.0, 5716.0, 8185.0, 5624.0, 5742.0, 5698.0, 5641.0, 15502.0, 8244.0, 5733.0, 8264.0, 8226.0, 5703.0, 5675.0, 5617.0, 5632.0, 11777.0, 5625.0, 8235.0, 5715.0, 5634.0, 11782.0, 5779.0, 5670.0, 8150.0, 5766.0, 5644.0, 15304.0, 5782.0, 5670.0, 5696.0, 11732.0, 8227.0, 5589.0, 5702.0, 8103.0, 5715.0, 8192.0, 8174.0, 5748.0, 11762.0, 8102.0, 5612.0, 8193.0, 5649.0, 5713.0, 8172.0, 15241.0, 8217.0, 5623.0, 5725.0, 5653.0, 5668.0, 11841.0, 8156.0, 8216.0, 5660.0, 5775.0, 5776.0, 5715.0, 8129.0, 5681.0, 5738.0, 5675.0, 8110.0, 8175.0, 5698.0, 15225.0, 8161.0, 5719.0, 5630.0, 8213.0, 8205.0, 5606.0, 8130.0, 5704.0, 5731.0, 5574.0, 8207.0, 5675.0, 5694.0, 5779.0, 11789.0, 8231.0, 5653.0, 8214.0, 8188.0, 15209.0, 5599.0, 5631.0, 8220.0, 5575.0, 5774.0]
    },
    "slices": {}
  }
}