{
  "AcquisitionMatrixPE": 110,
  "AcquisitionNumber": 1,
  "AcquisitionTime": "13:31:46.705000",
  "BandwidthPerPixelPhaseEncode": 12.987,
  "BaseResolution": 110,
  "BodyPartExamined": "BRAIN",
  "CoilCombinationMethod": "Sum of Squares",
  "ConsistencyInfo": "N4_VE11C_LATEST_20160120",
  "ConversionSoftware": "dcm2niix",
  "ConversionSoftwareVersion": "v1.0.20220505",
  "DerivedVendorReportedEchoSpacing": 0.000700001,
  "DeviceSerialNumber": "167006",
  "DiffusionScheme": "Monopolar",
  "DwellTime": 2.7e-06,
  "EchoTime": 0.0768,
  "EchoTrainLength": 83,
  "EffectiveEchoSpacing": 0.000700001,
  "FlipAngle": 78,
  "HeudiconvVersion": "0.5.3.post811+g6206e14",
  "ImageComments": "Unaliased MB3/PE3/LB SENSE1+",
  "ImageOrientationPatientDICOM": [1, 0, 0, 0, 0.976296, -0.21644],
  "ImageOrientationText": "Tra>Cor(-12.5)",
  "ImageType": [
    "ORIGINAL",
    "PRIMARY",
    "DIFFUSION",
    "NONE",
    "MB",
    "ND",
    "MOSAIC"
],
  "ImagingFrequency": 123.259,
  "InPlanePhaseEncodingDirectionDICOM": "COL",
  "InstitutionAddress": "Chemin Queen-Mary 4565,Montreal,District,CA,H3W 1W5",
  "InstitutionName": "IUGM",
  "InstitutionalDepartmentName": "Department",
  "MRAcquisitionType": "2D",
  "MagneticFieldStrength": 3,
  "Manufacturer": "Siemens",
  "ManufacturersModelName": "Prisma_fit",
  "MatrixCoilMode": "SENSE",
  "Modality": "MR",
  "MultibandAccelerationFactor": 3,
  "PartialFourier": 0.75,
  "PatientPosition": "HFS",
  "PercentPhaseFOV": 100,
  "PercentSampling": 100,
  "PhaseEncodingDirection": "j",
  "PhaseEncodingSteps": 83,
  "PhaseResolution": 1,
  "PixelBandwidth": 1685,
  "ProcedureStepDescription": "anat^generic",
  "ProtocolName": "dMRI_dir106_PA_test_cmrr",
  "PulseSequenceDetails": "%CustomerSeq%\\cmrr_mbep2d_diff",
  "ReceiveCoilActiveElements": "HC1-6",
  "ReceiveCoilName": "HeadNeck_64",
  "ReconMatrixPE": 110,
  "RepetitionTime": 2.243,
  "SAR": 0.115625,
  "ScanOptions": "PFP\\EXT",
  "ScanningSequence": "EP",
  "SequenceName": "ep_b0",
  "SequenceVariant": "SK\\SS",
  "SeriesDescription": "dMRI_dir106_PA_test_cmrr",
  "SeriesNumber": 14,
  "ShimSetting": [637, -7227, -8807, 652, 56, 13, 60, 0],
  "SliceThickness": 2,
  "SliceTiming": [0, 1.17, 0.1175, 1.2875, 0.235, 1.405, 0.35, 1.52, 0.4675, 1.6375, 0.585, 1.755, 0.7025, 1.8725, 0.82, 1.99, 0.935, 2.105, 1.0525, 0, 1.17, 0.1175, 1.2875, 0.235, 1.405, 0.35, 1.52, 0.4675, 1.6375, 0.585, 1.755, 0.7025, 1.8725, 0.82, 1.99, 0.935, 2.105, 1.0525, 0, 1.17, 0.1175, 1.2875, 0.235, 1.405, 0.35, 1.52, 0.4675, 1.6375, 0.585, 1.755, 0.7025, 1.8725, 0.82, 1.99, 0.935, 2.105, 1.0525],
  "SoftwareVersions": "syngo MR E11",
  "SpacingBetweenSlices": 2,
  "StationName": "MRC35049",
  "TotalReadoutTime": 0.0763001,
  "TxRefAmp": 207.651,
  "WipMemBlock": "9dde07af-5f19-4e76-82a1-dbece6727a4c||Sequence: R017 ve11c/master r/75a17815+; Jun 28 2022 16:41:33 by eja",
  "dcmmeta_affine": [
    [-2.0, 0.0, 0.0, 109.49686431884766],
    [0.0, 1.9525920152664185, -0.432879239320755, -86.3609390258789],
    [0.0, 0.432879239320755, 1.9525920152664185, -51.487884521484375],
    [0.0, 0.0, 0.0, 1.0]
],
  "dcmmeta_reorient_transform": [
    [0.0, -1.0, 0.0, 109.0],
    [1.0, 0.0, 0.0, 0.0],
    [0.0, 0.0, 1.0, 0.0],
    [0.0, 0.0, 0.0, 1.0]
],
  "dcmmeta_shape": [110, 110, 57, 107],
  "dcmmeta_slice_dim": 2,
  "dcmmeta_version": 0.6,
  "global": {
    "const": {
      "AcquisitionMatrix": [110, 0, 0, 110],
      "AngioFlag": "N",
      "BitsAllocated": 16,
      "BitsStored": 16,
      "BodyPartExamined": "BRAIN",
      "CardiacNumberOfImages": 1,
      "Columns": 880,
      "EchoNumbers": 1,
      "EchoTime": 76.8,
      "EchoTrainLength": 83,
      "FlipAngle": 78.0,
      "HighBit": 15,
      "ImageOrientationPatient": [1.0, 0.0, 0.0, 0.0, 0.97629600560084, -0.2164396207903],
      "ImagePositionPatient": [-879.49686384201, -878.21951591934, 162.35446242584],
      "ImageType": [
        "ORIGINAL",
        "PRIMARY",
        "DIFFUSION",
        "NONE",
        "MB",
        "ND",
        "MOSAIC"
],
      "ImagedNucleus": "1H",
      "ImagingFrequency": 123.258809,
      "InPlanePhaseEncodingDirection": "COL",
      "LargestImagePixelValue": 4095,
      "MRAcquisitionType": "2D",
      "MagneticFieldStrength": 3.0,
      "Manufacturer": "SIEMENS",
      "ManufacturerModelName": "Prisma_fit",
      "Modality": "MR",
      "NominalInterval": 0,
      "NumberOfAverages": 1.0,
      "NumberOfPhaseEncodingSteps": 83,
      "PercentPhaseFieldOfView": 100.0,
      "PercentSampling": 100.0,
      "PerformedProcedureStepStartTime": "130331.404000",
      "PhotometricInterpretation": "MONOCHROME2",
      "PixelBandwidth": 1685.0,
      "PixelRepresentation": 0,
      "PixelSpacing": [2.0, 2.0],
      "ProtocolName": "dMRI_dir106_PA_test_cmrr",
      "RepetitionTime": 2243.0,
      "RescaleIntercept": -4096.0,
      "RescaleSlope": 2.0,
      "RescaleType": "US",
      "Rows": 880,
      "SAR": 0.11562465557784,
      "SamplesPerPixel": 1,
      "ScanOptions": [
        "PFP",
        "EXT"
],
      "ScanningSequence": "EP",
      "SequenceVariant": [
        "SK",
        "SS"
],
      "SeriesDescription": "dMRI_dir106_PA_test_cmrr",
      "SeriesNumber": 14,
      "SeriesTime": "133158.479000",
      "SliceLocation": -31.575485838408,
      "SliceThickness": 2.0,
      "SmallestImagePixelValue": 0,
      "SoftwareVersions": "syngo MR E11",
      "SpacingBetweenSlices": 2.0000000154981,
      "SpecificCharacterSet": "ISO_IR 100",
      "StudyID": "1",
      "StudyTime": "130331.314000",
      "TransmitCoilName": "Body",
      "VariableFlipAngleFlag": "N",
      "WindowCenterWidthExplanation": "Algo1",
      "dBdt": 0.0},
    "slices": {}
  },
  "time": {
    "samples": {
      "AcquisitionNumber": [1, 2, 3, 4, 5, 6, 7, 8, 9, 10, 11, 12, 13, 14, 15, 16, 17, 18, 19, 20, 21, 22, 23, 24, 25, 26, 27, 28, 29, 30, 31, 32, 33, 34, 35, 36, 37, 38, 39, 40, 41, 42, 43, 44, 45, 46, 47, 48, 49, 50, 51, 52, 53, 54, 55, 56, 57, 58, 59, 60, 61, 62, 63, 64, 65, 66, 67, 68, 69, 70, 71, 72, 73, 74, 75, 76, 77, 78, 79, 80, 81, 82, 83, 84, 85, 86, 87, 88, 89, 90, 91, 92, 93, 94, 95, 96, 97, 98, 99, 100, 101, 102, 103, 104, 105, 106, 107],
      "AcquisitionTime": ["133146.705000", "133148.947500", "133151.190000", "133153.435000", "133155.677500", "133157.920000", "133200.162500", "133202.405000", "133204.650000", "133206.892500", "133209.135000", "133211.377500", "133213.620000", "133215.865000", "133218.107500", "133220.350000", "133222.592500", "133224.835000", "133227.080000", "133229.322500", "133231.565000", "133233.807500", "133236.050000", "133238.295000", "133240.537500", "133242.780000", "133245.022500", "133247.265000", "133249.510000", "133251.752500", "133253.995000", "133256.237500", "133258.480000", "133300.725000", "133302.967500", "133305.210000", "133307.452500", "133309.695000", "133311.940000", "133314.182500", "133316.425000", "133318.667500", "133320.910000", "133323.155000", "133325.397500", "133327.640000", "133329.882500", "133332.125000", "133334.370000", "133336.612500", "133338.855000", "133341.097500", "133343.340000", "133345.585000", "133347.827500", "133350.070000", "133352.312500", "133354.555000", "133356.800000", "133359.042500", "133401.285000", "133403.527500", "133405.770000", "133408.015000", "133410.257500", "133412.500000", "133414.742500", "133416.985000", "133419.230000", "133421.472500", "133423.715000", "133425.957500", "133428.200000", "133430.445000", "133432.687500", "133434.930000", "133437.172500", "133439.415000", "133441.660000", "133443.902500", "133446.145000", "133448.387500", "133450.630000", "133452.875000", "133455.117500", "133457.360000", "133459.602500", "133501.845000", "133504.090000", "133506.332500", "133508.575000", "133510.817500", "133513.060000", "133515.305000", "133517.547500", "133519.790000", "133522.032500", "133524.275000", "133526.520000", "133528.762500", "133531.005000", "133533.247500", "133535.490000", "133537.735000", "133539.977500", "133542.220000", "133544.462500"],
      "ContentTime": ["133158.482000", "133158.485000", "133158.495000", "133158.498000", "133158.501000", "133258.557000", "133258.570000", "133258.573000", "133258.576000", "133258.580000", "133258.583000", "133258.586000", "133258.589000", "133258.592000", "133258.595000", "133258.599000", "133258.602000", "133258.605000", "133258.608000", "133258.611000", "133258.615000", "133258.618000", "133258.621000", "133258.624000", "133258.627000", "133258.631000", "133258.634000", "133258.637000", "133258.640000", "133258.643000", "133258.647000", "133358.544000", "133358.547000", "133358.550000", "133358.554000", "133358.557000", "133358.560000", "133358.563000", "133358.572000", "133358.575000", "133358.579000", "133358.582000", "133358.585000", "133358.588000", "133358.591000", "133358.594000", "133358.598000", "133358.601000", "133358.604000", "133358.607000", "133358.611000", "133358.614000", "133358.617000", "133358.620000", "133358.623000", "133358.627000", "133358.630000", "133358.633000", "133458.547000", "133458.550000", "133458.553000", "133458.557000", "133458.560000", "133458.563000", "133458.566000", "133458.569000", "133458.573000", "133458.576000", "133458.579000", "133458.593000", "133458.597000", "133458.600000", "133458.603000", "133458.606000", "133458.609000", "133458.624000", "133458.627000", "133458.631000", "133458.634000", "133458.637000", "133458.640000", "133458.643000", "133458.646000", "133458.650000", "133458.653000", "133549.025000", "133549.029000", "133549.032000", "133549.036000", "133549.039000", "133549.042000", "133549.046000", "133549.049000", "133549.053000", "133549.063000", "133549.066000", "133549.070000", "133549.073000", "133549.076000", "133549.080000", "133549.083000", "133549.086000", "133549.089000", "133549.093000", "133549.096000", "133549.099000", "133549.103000"],
      "InstanceCreationTime": ["133158.482000", "133158.485000", "133158.495000", "133158.498000", "133158.501000", "133258.557000", "133258.570000", "133258.573000", "133258.576000", "133258.580000", "133258.583000", "133258.586000", "133258.589000", "133258.592000", "133258.595000", "133258.599000", "133258.602000", "133258.605000", "133258.608000", "133258.611000", "133258.615000", "133258.618000", "133258.621000", "133258.624000", "133258.627000", "133258.631000", "133258.634000", "133258.637000", "133258.640000", "133258.643000", "133258.647000", "133358.544000", "133358.547000", "133358.550000", "133358.554000", "133358.557000", "133358.560000", "133358.563000", "133358.572000", "133358.575000", "133358.579000", "133358.582000", "133358.585000", "133358.588000", "133358.591000", "133358.594000", "133358.598000", "133358.601000", "133358.604000", "133358.607000", "133358.611000", "133358.614000", "133358.617000", "133358.620000", "133358.623000", "133358.627000", "133358.630000", "133358.633000", "133458.547000", "133458.550000", "133458.553000", "133458.557000", "133458.560000", "133458.563000", "133458.566000", "133458.569000", "133458.573000", "133458.576000", "133458.579000", "133458.593000", "133458.597000", "133458.600000", "133458.603000", "133458.606000", "133458.609000", "133458.624000", "133458.627000", "133458.631000", "133458.634000", "133458.637000", "133458.640000", "133458.643000", "133458.646000", "133458.650000", "133458.653000", "133549.025000", "133549.029000", "133549.032000", "133549.036000", "133549.039000", "133549.042000", "133549.046000", "133549.049000", "133549.053000", "133549.063000", "133549.066000", "133549.070000", "133549.073000", "133549.076000", "133549.080000", "133549.083000", "133549.086000", "133549.089000", "133549.093000", "133549.096000", "133549.099000", "133549.103000"],
      "InstanceNumber": [1, 2, 3, 4, 5, 6, 7, 8, 9, 10, 11, 12, 13, 14, 15, 16, 17, 18, 19, 20, 21, 22, 23, 24, 25, 26, 27, 28, 29, 30, 31, 32, 33, 34, 35, 36, 37, 38, 39, 40, 41, 42, 43, 44, 45, 46, 47, 48, 49, 50, 51, 52, 53, 54, 55, 56, 57, 58, 59, 60, 61, 62, 63, 64, 65, 66, 67, 68, 69, 70, 71, 72, 73, 74, 75, 76, 77, 78, 79, 80, 81, 82, 83, 84, 85, 86, 87, 88, 89, 90, 91, 92, 93, 94, 95, 96, 97, 98, 99, 100, 101, 102, 103, 104, 105, 106, 107],
      "SequenceName": [
 "ep_b0",
 "ep_b0",
 "ep_b1000#2",
 "ep_b2000#3",
 "ep_b1000#4",
 "ep_b1000#5",
 "ep_b300#6",
 "ep_b2000#7",
 "ep_b2000#8",
 "ep_b2000#9",
 "ep_b1000#10",
 "ep_b300#11",
 "ep_b2000#12",
 "ep_b2000#13",
 "ep_b2000#14",
 "ep_b2000#15",
 "ep_b1000#16",
 "ep_b2000#17",
 "ep_b2000#18",
 "ep_b2000#19",
 "ep_b2000#20",
 "ep_b0",
 "ep_b1000#22",
 "ep_b2000#23",
 "ep_b1000#24",
 "ep_b1000#25",
 "ep_b2000#26",
 "ep_b2000#27",
 "ep_b2000#28",
 "ep_b2000#29",
 "ep_b300#30",
 "ep_b2000#31",
 "ep_b1000#32",
 "ep_b2000#33",
 "ep_b2000#34",
 "ep_b300#35",
 "ep_b2000#36",
 "ep_b2000#37",
 "ep_b1000#38",
 "ep_b2000#39",
 "ep_b2000#40",
 "ep_b0",
 "ep_b2000#42",
 "ep_b2000#43",
 "ep_b2000#44",
 "ep_b300#45",
 "ep_b1000#46",
 "ep_b2000#47",
 "ep_b2000#48",
 "ep_b1000#49",
 "ep_b2000#50",
 "ep_b1000#51",
 "ep_b1000#52",
 "ep_b2000#53",
 "ep_b300#54",
 "ep_b1000#55",
 "ep_b2000#56",
 "ep_b1000#57",
 "ep_b2000#58",
 "ep_b2000#59",
 "ep_b1000#60",
 "ep_b0",
 "ep_b1000#62",
 "ep_b2000#63",
 "ep_b2000#64",
 "ep_b2000#65",
 "ep_b2000#66",
 "ep_b300#67",
 "ep_b1000#68",
 "ep_b1000#69",
 "ep_b2000#70",
 "ep_b2000#71",
 "ep_b2000#72",
 "ep_b2000#73",
 "ep_b1000#74",
 "ep_b2000#75",
 "ep_b2000#76",
 "ep_b2000#77",
 "ep_b1000#78",
 "ep_b1000#79",
 "ep_b2000#80",
 "ep_b0",
 "ep_b1000#82",
 "ep_b2000#83",
 "ep_b2000#84",
 "ep_b1000#85",
 "ep_b1000#86",
 "ep_b2000#87",
 "ep_b1000#88",
 "ep_b2000#89",
 "ep_b2000#90",
 "ep_b2000#91",
 "ep_b1000#92",
 "ep_b2000#93",
 "ep_b2000#94",
 "ep_b2000#95",
 "ep_b300#96",
 "ep_b1000#97",
 "ep_b2000#98",
 "ep_b1000#99",
 "ep_b1000#100",
 "ep_b0",
 "ep_b2000#102",
 "ep_b2000#103",
 "ep_b1000#104",
 "ep_b2000#105",
 "ep_b2000#106"
],
      "TriggerTime": [12837.5, 15080.0, 17322.5, 19567.5, 21810.0, 24052.5, 26295.0, 28537.5, 30782.5, 33025.0, 35267.5, 37510.0, 39752.5, 41997.5, 44240.0, 46482.5, 48725.0, 50967.5, 53212.5, 55455.0, 57697.5, 59940.0, 62182.5, 64427.5, 66670.0, 68912.5, 71155.0, 73397.5, 75642.5, 77885.0, 80127.5, 82370.0, 84612.5, 86857.5, 89100.0, 91342.5, 93585.0, 95827.5, 98072.5, 100315.0, 102557.5, 104800.0, 107042.5, 109287.5, 111530.0, 113772.5, 116015.0, 118257.5, 120502.5, 122745.0, 124987.5, 127230.0, 129472.5, 131717.5, 133960.0, 136202.5, 138445.0, 140687.5, 142932.5, 145175.0, 147417.5, 149660.0, 151902.5, 154147.5, 156390.0, 158632.5, 160875.0, 163117.5, 165362.5, 167605.0, 169847.5, 172090.0, 174332.5, 176577.5, 178820.0, 181062.5, 183305.0, 185547.5, 187792.5, 190035.0, 192277.5, 194520.0, 196762.5, 199007.5, 201250.0, 203492.5, 205735.0, 207977.5, 210222.5, 212465.0, 214707.5, 216950.0, 219192.5, 221437.5, 223680.0, 225922.5, 228165.0, 230407.5, 232652.5, 234895.0, 237137.5, 239380.0, 241622.5, 243867.5, 246110.0, 248352.5, 250595.0],
      "WindowCenter": [4546.0, 4546.0, 4366.0, 4612.0, 4602.0, 4756.0, 4550.0, 4430.0, 4678.0, 4616.0, 4726.0, 4594.0, 4856.0, 5034.0, 4892.0, 4634.0, 4866.0, 4698.0, 4184.0, 4760.0, 4482.0, 4542.0, 4950.0, 4458.0, 4706.0, 4798.0, 4688.0, 4654.0, 5118.0, 4638.0, 4634.0, 4666.0, 4710.0, 4688.0, 4704.0, 4542.0, 5074.0, 4554.0, 4868.0, 4570.0, 4926.0, 4480.0, 4540.0, 4660.0, 5002.0, 4608.0, 4316.0, 4784.0, 4536.0, 4722.0, 4786.0, 4998.0, 4388.0, 4648.0, 4518.0, 4672.0, 4810.0, 4336.0, 4962.0, 4562.0, 4770.0, 4704.0, 4506.0, 5040.0, 4082.0, 4908.0, 4594.0, 4602.0, 4676.0, 4980.0, 4582.0, 4386.0, 4462.0, 4338.0, 4728.0, 4278.0, 4164.0, 4696.0, 4616.0, 4766.0, 4624.0, 4582.0, 4944.0, 4912.0, 4910.0, 4566.0, 4814.0, 5106.0, 4982.0, 4308.0, 4218.0, 4870.0, 4498.0, 4928.0, 4374.0, 4862.0, 4608.0, 4342.0, 4698.0, 4840.0, 4554.0, 4606.0, 4766.0, 5104.0, 4620.0, 4702.0, 4378.0],
      "WindowWidth": [18054.0, 18056.0, 18012.0, 18562.0, 18426.0, 18442.0, 18156.0, 18290.0, 18646.0, 18454.0, 18470.0, 18262.0, 18600.0, 18806.0, 18842.0, 18570.0, 18758.0, 18618.0, 17866.0, 18756.0, 18326.0, 18052.0, 18826.0, 18278.0, 18488.0, 18652.0, 18660.0, 18406.0, 18930.0, 18542.0, 18190.0, 18648.0, 18426.0, 18644.0, 18550.0, 18164.0, 19016.0, 18468.0, 18510.0, 18356.0, 18670.0, 18006.0, 18376.0, 18586.0, 18974.0, 18242.0, 18006.0, 18672.0, 18272.0, 18576.0, 18784.0, 18784.0, 18010.0, 18506.0, 18102.0, 18394.0, 18828.0, 18018.0, 18844.0, 18378.0, 18430.0, 18206.0, 18240.0, 19026.0, 17804.0, 18916.0, 18408.0, 18254.0, 18526.0, 18852.0, 18310.0, 18238.0, 18196.0, 18150.0, 18406.0, 18032.0, 17958.0, 18662.0, 18422.0, 18680.0, 18596.0, 18094.0, 18646.0, 18674.0, 18912.0, 18384.0, 18694.0, 18948.0, 18768.0, 18116.0, 17978.0, 18640.0, 18194.0, 18994.0, 18096.0, 18868.0, 18244.0, 18096.0, 18682.0, 18670.0, 18378.0, 18112.0, 18680.0, 19154.0, 18312.0, 18694.0, 18196.0]
    },
    "slices": {}
  }
}