{
  "AcquisitionMatrixPE": 110,
  "AcquisitionNumber": 1,
  "AcquisitionTime": "13:27:28.695000",
  "BandwidthPerPixelPhaseEncode": 12.987,
  "BaseResolution": 110,
  "BodyPartExamined": "BRAIN",
  "CoilCombinationMethod": "Sum of Squares",
  "ConsistencyInfo": "N4_VE11C_LATEST_20160120",
  "ConversionSoftware": "dcm2niix",
  "ConversionSoftwareVersion": "v1.0.20220505",
  "DerivedVendorReportedEchoSpacing": 0.000700001,
  "DeviceSerialNumber": "167006",
  "DiffusionScheme": "Monopolar",
  "DwellTime": 2.7e-06,
  "EchoTime": 0.0768,
  "EchoTrainLength": 83,
  "EffectiveEchoSpacing": 0.000700001,
  "FlipAngle": 78,
  "HeudiconvVersion": "0.5.3.post811+g6206e14",
  "ImageComments": "Unaliased MB3/PE3/LB SENSE1+",
  "ImageOrientationPatientDICOM": [1, 0, 0, 0, 0.976296, -0.21644],
  "ImageOrientationText": "Tra>Cor(-12.5)",
  "ImageType": [
    "ORIGINAL",
    "PRIMARY",
    "DIFFUSION",
    "NONE",
    "MB",
    "ND",
    "MOSAIC"
],
  "ImagingFrequency": 123.259,
  "InPlanePhaseEncodingDirectionDICOM": "COL",
  "InstitutionAddress": "Chemin Queen-Mary 4565,Montreal,District,CA,H3W 1W5",
  "InstitutionName": "IUGM",
  "InstitutionalDepartmentName": "Department",
  "MRAcquisitionType": "2D",
  "MagneticFieldStrength": 3,
  "Manufacturer": "Siemens",
  "ManufacturersModelName": "Prisma_fit",
  "MatrixCoilMode": "SENSE",
  "Modality": "MR",
  "MultibandAccelerationFactor": 3,
  "PartialFourier": 0.75,
  "PatientPosition": "HFS",
  "PercentPhaseFOV": 100,
  "PercentSampling": 100,
  "PhaseEncodingDirection": "j-",
  "PhaseEncodingSteps": 83,
  "PhaseResolution": 1,
  "PixelBandwidth": 1685,
  "ProcedureStepDescription": "anat^generic",
  "ProtocolName": "dMRI_dir106_AP_test_cmrr",
  "PulseSequenceDetails": "%CustomerSeq%\\cmrr_mbep2d_diff",
  "ReceiveCoilActiveElements": "HC1-6",
  "ReceiveCoilName": "HeadNeck_64",
  "ReconMatrixPE": 110,
  "RepetitionTime": 2.243,
  "SAR": 0.115625,
  "ScanOptions": "PFP\\EXT",
  "ScanningSequence": "EP",
  "SequenceName": "ep_b0",
  "SequenceVariant": "SK\\SS",
  "SeriesDescription": "dMRI_dir106_AP_test_cmrr",
  "SeriesNumber": 8,
  "ShimSetting": [637, -7227, -8807, 652, 56, 13, 60, 0],
  "SliceThickness": 2,
  "SliceTiming": [0, 1.17, 0.1175, 1.2875, 0.235, 1.405, 0.3525, 1.5225, 0.47, 1.64, 0.585, 1.755, 0.7025, 1.8725, 0.82, 1.99, 0.9375, 2.1075, 1.055, 0, 1.17, 0.1175, 1.2875, 0.235, 1.405, 0.3525, 1.5225, 0.47, 1.64, 0.585, 1.755, 0.7025, 1.8725, 0.82, 1.99, 0.9375, 2.1075, 1.055, 0, 1.17, 0.1175, 1.2875, 0.235, 1.405, 0.3525, 1.5225, 0.47, 1.64, 0.585, 1.755, 0.7025, 1.8725, 0.82, 1.99, 0.9375, 2.1075, 1.055],
  "SoftwareVersions": "syngo MR E11",
  "SpacingBetweenSlices": 2,
  "StationName": "MRC35049",
  "TotalReadoutTime": 0.0763001,
  "TxRefAmp": 207.651,
  "WipMemBlock": "12a4b0bb-83b3-450c-9443-e0fada5af9ab||Sequence: R017 ve11c/master r/75a17815+; Jun 28 2022 16:41:33 by eja",
  "dcmmeta_affine": [
    [-2.0, 0.0, 0.0, 109.49686431884766],
    [0.0, 1.9525920152664185, -0.432879239320755, -86.3609390258789],
    [0.0, 0.432879239320755, 1.9525920152664185, -51.487884521484375],
    [0.0, 0.0, 0.0, 1.0]
],
  "dcmmeta_reorient_transform": [
    [0.0, -1.0, 0.0, 109.0],
    [1.0, 0.0, 0.0, 0.0],
    [0.0, 0.0, 1.0, 0.0],
    [0.0, 0.0, 0.0, 1.0]
],
  "dcmmeta_shape": [110, 110, 57, 107],
  "dcmmeta_slice_dim": 2,
  "dcmmeta_version": 0.6,
  "global": {
    "const": {
      "AcquisitionMatrix": [110, 0, 0, 110],
      "AngioFlag": "N",
      "BitsAllocated": 16,
      "BitsStored": 16,
      "BodyPartExamined": "BRAIN",
      "CardiacNumberOfImages": 1,
      "Columns": 880,
      "EchoNumbers": 1,
      "EchoTime": 76.8,
      "EchoTrainLength": 83,
      "FlipAngle": 78.0,
      "HighBit": 15,
      "ImageOrientationPatient": [1.0, 0.0, 0.0, 0.0, 0.97629600560084, -0.2164396207903],
      "ImagePositionPatient": [-879.49686384201, -878.21951591934, 162.35446242584],
      "ImageType": [
        "ORIGINAL",
        "PRIMARY",
        "DIFFUSION",
        "NONE",
        "MB",
        "ND",
        "MOSAIC"
],
      "ImagedNucleus": "1H",
      "ImagingFrequency": 123.258805,
      "InPlanePhaseEncodingDirection": "COL",
      "MRAcquisitionType": "2D",
      "MagneticFieldStrength": 3.0,
      "Manufacturer": "SIEMENS",
      "ManufacturerModelName": "Prisma_fit",
      "Modality": "MR",
      "NominalInterval": 0,
      "NumberOfAverages": 1.0,
      "NumberOfPhaseEncodingSteps": 83,
      "PercentPhaseFieldOfView": 100.0,
      "PercentSampling": 100.0,
      "PerformedProcedureStepStartTime": "130331.404000",
      "PhotometricInterpretation": "MONOCHROME2",
      "PixelBandwidth": 1685.0,
      "PixelRepresentation": 0,
      "PixelSpacing": [2.0, 2.0],
      "ProtocolName": "dMRI_dir106_AP_test_cmrr",
      "RepetitionTime": 2243.0,
      "Rows": 880,
      "SAR": 0.11562465557784,
      "SamplesPerPixel": 1,
      "ScanOptions": [
        "PFP",
        "EXT"
],
      "ScanningSequence": "EP",
      "SequenceVariant": [
        "SK",
        "SS"
],
      "SeriesDescription": "dMRI_dir106_AP_test_cmrr",
      "SeriesNumber": 8,
      "SeriesTime": "132817.941000",
      "SliceLocation": -31.575485838408,
      "SliceThickness": 2.0,
      "SmallestImagePixelValue": 0,
      "SoftwareVersions": "syngo MR E11",
      "SpacingBetweenSlices": 2.0000000154981,
      "SpecificCharacterSet": "ISO_IR 100",
      "StudyID": "1",
      "StudyTime": "130331.314000",
      "TransmitCoilName": "Body",
      "VariableFlipAngleFlag": "N",
      "WindowCenterWidthExplanation": "Algo1",
      "dBdt": 0.0},
    "slices": {}
  },
  "time": {
    "samples": {
      "AcquisitionNumber": [1, 2, 3, 4, 5, 6, 7, 8, 9, 10, 11, 12, 13, 14, 15, 16, 17, 18, 19, 20, 21, 22, 23, 24, 25, 26, 27, 28, 29, 30, 31, 32, 33, 34, 35, 36, 37, 38, 39, 40, 41, 42, 43, 44, 45, 46, 47, 48, 49, 50, 51, 52, 53, 54, 55, 56, 57, 58, 59, 60, 61, 62, 63, 64, 65, 66, 67, 68, 69, 70, 71, 72, 73, 74, 75, 76, 77, 78, 79, 80, 81, 82, 83, 84, 85, 86, 87, 88, 89, 90, 91, 92, 93, 94, 95, 96, 97, 98, 99, 100, 101, 102, 103, 104, 105, 106, 107],
      "AcquisitionTime": ["132728.695000", "132730.940000", "132733.182500", "132735.425000", "132737.667500", "132739.910000", "132742.155000", "132744.397500", "132746.640000", "132748.882500", "132751.125000", "132753.370000", "132755.612500", "132757.855000", "132800.097500", "132802.340000", "132804.585000", "132806.827500", "132809.070000", "132811.312500", "132813.555000", "132815.800000", "132818.042500", "132820.285000", "132822.527500", "132824.770000", "132827.015000", "132829.257500", "132831.500000", "132833.742500", "132835.985000", "132838.230000", "132840.472500", "132842.715000", "132844.957500", "132847.200000", "132849.445000", "132851.687500", "132853.930000", "132856.172500", "132858.415000", "132900.660000", "132902.902500", "132905.145000", "132907.387500", "132909.630000", "132911.875000", "132914.117500", "132916.360000", "132918.602500", "132920.845000", "132923.090000", "132925.332500", "132927.575000", "132929.817500", "132932.060000", "132934.305000", "132936.547500", "132938.790000", "132941.032500", "132943.275000", "132945.520000", "132947.762500", "132950.005000", "132952.247500", "132954.490000", "132956.735000", "132958.977500", "133001.220000", "133003.462500", "133005.705000", "133007.950000", "133010.192500", "133012.435000", "133014.677500", "133016.920000", "133019.165000", "133021.407500", "133023.650000", "133025.892500", "133028.135000", "133030.380000", "133032.622500", "133034.865000", "133037.107500", "133039.350000", "133041.595000", "133043.837500", "133046.080000", "133048.322500", "133050.565000", "133052.810000", "133055.052500", "133057.295000", "133059.537500", "133101.780000", "133104.025000", "133106.267500", "133108.510000", "133110.752500", "133112.995000", "133115.240000", "133117.482500", "133119.725000", "133121.967500", "133124.210000", "133126.455000"],
      "ContentTime": ["132817.944000", "132817.947000", "132817.951000", "132817.954000", "132817.957000", "132817.960000", "132817.964000", "132817.967000", "132817.974000", "132817.977000", "132817.981000", "132817.984000", "132817.987000", "132817.990000", "132817.993000", "132817.997000", "132818.001000", "132818.004000", "132818.007000", "132818.010000", "132818.014000", "132917.900000", "132917.903000", "132917.907000", "132917.910000", "132917.913000", "132917.916000", "132917.919000", "132917.922000", "132917.926000", "132917.929000", "132917.932000", "132917.935000", "132917.938000", "132917.941000", "132917.944000", "132917.947000", "132917.951000", "132917.954000", "132917.957000", "132917.960000", "132917.963000", "132917.966000", "132917.969000", "132917.973000", "132917.976000", "132917.979000", "132917.982000", "133017.899000", "133017.902000", "133017.906000", "133017.909000", "133017.912000", "133017.915000", "133017.918000", "133017.921000", "133017.925000", "133017.928000", "133017.931000", "133017.934000", "133017.937000", "133017.941000", "133017.944000", "133017.947000", "133017.950000", "133017.953000", "133017.956000", "133017.959000", "133017.963000", "133017.966000", "133017.969000", "133017.972000", "133017.975000", "133017.978000", "133017.982000", "133117.900000", "133117.904000", "133117.907000", "133117.910000", "133117.913000", "133117.916000", "133117.919000", "133117.922000", "133117.926000", "133117.929000", "133117.932000", "133117.935000", "133117.938000", "133117.942000", "133117.945000", "133117.948000", "133117.951000", "133117.954000", "133117.957000", "133117.960000", "133117.964000", "133117.967000", "133117.970000", "133117.983000", "133117.986000", "133117.990000", "133131.541000", "133131.544000", "133131.547000", "133131.550000", "133131.553000", "133131.557000"],
      "InstanceCreationTime": ["132817.944000", "132817.947000", "132817.951000", "132817.954000", "132817.957000", "132817.960000", "132817.964000", "132817.967000", "132817.974000", "132817.977000", "132817.981000", "132817.984000", "132817.987000", "132817.990000", "132817.993000", "132817.997000", "132818.001000", "132818.004000", "132818.007000", "132818.010000", "132818.014000", "132917.900000", "132917.903000", "132917.907000", "132917.910000", "132917.913000", "132917.916000", "132917.919000", "132917.922000", "132917.926000", "132917.929000", "132917.932000", "132917.935000", "132917.938000", "132917.941000", "132917.944000", "132917.947000", "132917.951000", "132917.954000", "132917.957000", "132917.960000", "132917.963000", "132917.966000", "132917.969000", "132917.973000", "132917.976000", "132917.979000", "132917.982000", "133017.899000", "133017.902000", "133017.906000", "133017.909000", "133017.912000", "133017.915000", "133017.918000", "133017.921000", "133017.925000", "133017.928000", "133017.931000", "133017.934000", "133017.937000", "133017.941000", "133017.944000", "133017.947000", "133017.950000", "133017.953000", "133017.956000", "133017.959000", "133017.963000", "133017.966000", "133017.969000", "133017.972000", "133017.975000", "133017.978000", "133017.982000", "133117.900000", "133117.904000", "133117.907000", "133117.910000", "133117.913000", "133117.916000", "133117.919000", "133117.922000", "133117.926000", "133117.929000", "133117.932000", "133117.935000", "133117.938000", "133117.942000", "133117.945000", "133117.948000", "133117.951000", "133117.954000", "133117.957000", "133117.960000", "133117.964000", "133117.967000", "133117.970000", "133117.983000", "133117.986000", "133117.990000", "133131.541000", "133131.544000", "133131.547000", "133131.550000", "133131.553000", "133131.557000"],
      "InstanceNumber": [1, 2, 3, 4, 5, 6, 7, 8, 9, 10, 11, 12, 13, 14, 15, 16, 17, 18, 19, 20, 21, 22, 23, 24, 25, 26, 27, 28, 29, 30, 31, 32, 33, 34, 35, 36, 37, 38, 39, 40, 41, 42, 43, 44, 45, 46, 47, 48, 49, 50, 51, 52, 53, 54, 55, 56, 57, 58, 59, 60, 61, 62, 63, 64, 65, 66, 67, 68, 69, 70, 71, 72, 73, 74, 75, 76, 77, 78, 79, 80, 81, 82, 83, 84, 85, 86, 87, 88, 89, 90, 91, 92, 93, 94, 95, 96, 97, 98, 99, 100, 101, 102, 103, 104, 105, 106, 107],
      "LargestImagePixelValue": [34111, 34246, 14341, 7356, 13903, 13451, 24012, 8555, 8580, 7444, 15531, 24044, 7816, 7687, 8002, 7850, 14262, 7500, 7425, 10518, 7623, 33587, 16430, 7924, 14432, 14095, 8945, 7154, 7998, 7061, 23413, 7880, 14080, 8372, 6907, 23867, 9197, 7596, 14260, 7285, 7507, 34682, 8908, 7551, 9601, 22081, 12859, 7436, 7012, 13434, 9351, 15451, 13242, 9348, 23204, 13138, 8478, 13616, 7454, 7167, 13821, 37642, 13926, 7432, 7467, 9226, 7206, 24477, 13486, 15588, 7226, 7598, 7321, 7371, 13380, 7033, 7526, 7303, 12874, 14891, 7596, 35957, 14196, 8556, 8411, 13258, 15171, 7916, 14149, 7104, 7282, 7414, 13802, 9241, 7074, 10384, 23315, 13473, 7458, 13905, 12491, 37069, 7264, 8284, 12929, 7068, 7874],
      "SequenceName": [
 "ep_b0",
 "ep_b0",
 "ep_b1000#2",
 "ep_b2000#3",
 "ep_b1000#4",
 "ep_b1000#5",
 "ep_b300#6",
 "ep_b2000#7",
 "ep_b2000#8",
 "ep_b2000#9",
 "ep_b1000#10",
 "ep_b300#11",
 "ep_b2000#12",
 "ep_b2000#13",
 "ep_b2000#14",
 "ep_b2000#15",
 "ep_b1000#16",
 "ep_b2000#17",
 "ep_b2000#18",
 "ep_b2000#19",
 "ep_b2000#20",
 "ep_b0",
 "ep_b1000#22",
 "ep_b2000#23",
 "ep_b1000#24",
 "ep_b1000#25",
 "ep_b2000#26",
 "ep_b2000#27",
 "ep_b2000#28",
 "ep_b2000#29",
 "ep_b300#30",
 "ep_b2000#31",
 "ep_b1000#32",
 "ep_b2000#33",
 "ep_b2000#34",
 "ep_b300#35",
 "ep_b2000#36",
 "ep_b2000#37",
 "ep_b1000#38",
 "ep_b2000#39",
 "ep_b2000#40",
 "ep_b0",
 "ep_b2000#42",
 "ep_b2000#43",
 "ep_b2000#44",
 "ep_b300#45",
 "ep_b1000#46",
 "ep_b2000#47",
 "ep_b2000#48",
 "ep_b1000#49",
 "ep_b2000#50",
 "ep_b1000#51",
 "ep_b1000#52",
 "ep_b2000#53",
 "ep_b300#54",
 "ep_b1000#55",
 "ep_b2000#56",
 "ep_b1000#57",
 "ep_b2000#58",
 "ep_b2000#59",
 "ep_b1000#60",
 "ep_b0",
 "ep_b1000#62",
 "ep_b2000#63",
 "ep_b2000#64",
 "ep_b2000#65",
 "ep_b2000#66",
 "ep_b300#67",
 "ep_b1000#68",
 "ep_b1000#69",
 "ep_b2000#70",
 "ep_b2000#71",
 "ep_b2000#72",
 "ep_b2000#73",
 "ep_b1000#74",
 "ep_b2000#75",
 "ep_b2000#76",
 "ep_b2000#77",
 "ep_b1000#78",
 "ep_b1000#79",
 "ep_b2000#80",
 "ep_b0",
 "ep_b1000#82",
 "ep_b2000#83",
 "ep_b2000#84",
 "ep_b1000#85",
 "ep_b1000#86",
 "ep_b2000#87",
 "ep_b1000#88",
 "ep_b2000#89",
 "ep_b2000#90",
 "ep_b2000#91",
 "ep_b1000#92",
 "ep_b2000#93",
 "ep_b2000#94",
 "ep_b2000#95",
 "ep_b300#96",
 "ep_b1000#97",
 "ep_b2000#98",
 "ep_b1000#99",
 "ep_b1000#100",
 "ep_b0",
 "ep_b2000#102",
 "ep_b2000#103",
 "ep_b1000#104",
 "ep_b2000#105",
 "ep_b2000#106"
],
      "TriggerTime": [12835.0, 15077.5, 17322.5, 19565.0, 21807.5, 24050.0, 26292.5, 28537.5, 30780.0, 33022.5, 35265.0, 37507.5, 39752.5, 41995.0, 44237.5, 46480.0, 48722.5, 50967.5, 53210.0, 55452.5, 57695.0, 59937.5, 62182.5, 64425.0, 66667.5, 68910.0, 71152.5, 73397.5, 75640.0, 77882.5, 80125.0, 82367.5, 84612.5, 86855.0, 89097.5, 91340.0, 93582.5, 95827.5, 98070.0, 100312.5, 102555.0, 104797.5, 107042.5, 109285.0, 111527.5, 113770.0, 116012.5, 118257.5, 120500.0, 122742.5, 124985.0, 127227.5, 129472.5, 131715.0, 133957.5, 136200.0, 138442.5, 140687.5, 142930.0, 145172.5, 147415.0, 149657.5, 151902.5, 154145.0, 156387.5, 158630.0, 160872.5, 163117.5, 165360.0, 167602.5, 169845.0, 172087.5, 174332.5, 176575.0, 178817.5, 181060.0, 183302.5, 185547.5, 187790.0, 190032.5, 192275.0, 194517.5, 196762.5, 199005.0, 201247.5, 203490.0, 205732.5, 207977.5, 210220.0, 212462.5, 214705.0, 216947.5, 219192.5, 221435.0, 223677.5, 225920.0, 228162.5, 230407.5, 232650.0, 234892.5, 237135.0, 239377.5, 241622.5, 243865.0, 246107.5, 248350.0, 250592.5],
      "WindowCenter": [6943.0, 6958.0, 3519.0, 2241.0, 3429.0, 3450.0, 5278.0, 2245.0, 2277.0, 2249.0, 3518.0, 5272.0, 2233.0, 2232.0, 2266.0, 2231.0, 3446.0, 2237.0, 2279.0, 2316.0, 2214.0, 6899.0, 3503.0, 2270.0, 3513.0, 3427.0, 2265.0, 2246.0, 2246.0, 2192.0, 5253.0, 2236.0, 3468.0, 2221.0, 2220.0, 5271.0, 2282.0, 2207.0, 3449.0, 2255.0, 2245.0, 6867.0, 2304.0, 2245.0, 2287.0, 5225.0, 3465.0, 2221.0, 2264.0, 3456.0, 2248.0, 3472.0, 3467.0, 2314.0, 5237.0, 3440.0, 2249.0, 3494.0, 2247.0, 2278.0, 3483.0, 6882.0, 3454.0, 2220.0, 2284.0, 2244.0, 2234.0, 5254.0, 3437.0, 3434.0, 2250.0, 2252.0, 2267.0, 2249.0, 3426.0, 2228.0, 2264.0, 2195.0, 3419.0, 3445.0, 2209.0, 6859.0, 3433.0, 2274.0, 2216.0, 3407.0, 3495.0, 2230.0, 3442.0, 2238.0, 2267.0, 2225.0, 3493.0, 2259.0, 2268.0, 2304.0, 5224.0, 3433.0, 2221.0, 3456.0, 3405.0, 6892.0, 2220.0, 2217.0, 3450.0, 2195.0, 2276.0],
      "WindowWidth": [14910.0, 14937.0, 8024.0, 5474.0, 7860.0, 7883.0, 11471.0, 5454.0, 5540.0, 5479.0, 8017.0, 11462.0, 5434.0, 5435.0, 5513.0, 5443.0, 7882.0, 5461.0, 5536.0, 5609.0, 5397.0, 14807.0, 7990.0, 5505.0, 8014.0, 7850.0, 5521.0, 5461.0, 5460.0, 5359.0, 11415.0, 5457.0, 7924.0, 5423.0, 5424.0, 11457.0, 5530.0, 5388.0, 7886.0, 5496.0, 5460.0, 14745.0, 5573.0, 5467.0, 5541.0, 11379.0, 7921.0, 5416.0, 5507.0, 7909.0, 5477.0, 7926.0, 7928.0, 5601.0, 11391.0, 7870.0, 5485.0, 7976.0, 5466.0, 5545.0, 7958.0, 14767.0, 7902.0, 5418.0, 5556.0, 5463.0, 5442.0, 11421.0, 7874.0, 7860.0, 5483.0, 5478.0, 5513.0, 5485.0, 7851.0, 5451.0, 5505.0, 5373.0, 7840.0, 7892.0, 5398.0, 14721.0, 7853.0, 5515.0, 5409.0, 7814.0, 7979.0, 5426.0, 7877.0, 5455.0, 5514.0, 5421.0, 7968.0, 5493.0, 5526.0, 5583.0, 11361.0, 7866.0, 5429.0, 7905.0, 7809.0, 14780.0, 5417.0, 5409.0, 7890.0, 5381.0, 5522.0]
    },
    "slices": {}
  }
}