{
  "AcquisitionMatrixPE": 110,
  "AcquisitionNumber": 1,
  "AcquisitionTime": "13:27:28.695000",
  "BandwidthPerPixelPhaseEncode": 12.987,
  "BaseResolution": 110,
  "BodyPartExamined": "BRAIN",
  "CoilCombinationMethod": "Sum of Squares",
  "ConsistencyInfo": "N4_VE11C_LATEST_20160120",
  "ConversionSoftware": "dcm2niix",
  "ConversionSoftwareVersion": "v1.0.20220505",
  "DerivedVendorReportedEchoSpacing": 0.000700001,
  "DeviceSerialNumber": "167006",
  "DiffusionScheme": "Monopolar",
  "DwellTime": 2.7e-06,
  "EchoTime": 0.0768,
  "EchoTrainLength": 83,
  "EffectiveEchoSpacing": 0.000700001,
  "FlipAngle": 78,
  "HeudiconvVersion": "0.5.3.post811+g6206e14",
  "ImageComments": "Unaliased MB3/PE3/LB SENSE1+",
  "ImageOrientationPatientDICOM": [1, 0, 0, 0, 0.976296, -0.21644],
  "ImageOrientationText": "Tra>Cor(-12.5)",
  "ImageType": [
    "ORIGINAL",
    "PRIMARY",
    "DIFFUSION",
    "NONE",
    "MB",
    "ND",
    "MOSAIC"
],
  "ImagingFrequency": 123.259,
  "InPlanePhaseEncodingDirectionDICOM": "COL",
  "InstitutionAddress": "Chemin Queen-Mary 4565,Montreal,District,CA,H3W 1W5",
  "InstitutionName": "IUGM",
  "InstitutionalDepartmentName": "Department",
  "MRAcquisitionType": "2D",
  "MagneticFieldStrength": 3,
  "Manufacturer": "Siemens",
  "ManufacturersModelName": "Prisma_fit",
  "MatrixCoilMode": "SENSE",
  "Modality": "MR",
  "MultibandAccelerationFactor": 3,
  "PartialFourier": 0.75,
  "PatientPosition": "HFS",
  "PercentPhaseFOV": 100,
  "PercentSampling": 100,
  "PhaseEncodingDirection": "j-",
  "PhaseEncodingSteps": 83,
  "PhaseResolution": 1,
  "PixelBandwidth": 1685,
  "ProcedureStepDescription": "anat^generic",
  "ProtocolName": "dMRI_dir106_AP_test_cmrr",
  "PulseSequenceDetails": "%CustomerSeq%\\cmrr_mbep2d_diff",
  "ReceiveCoilActiveElements": "HC1-6",
  "ReceiveCoilName": "HeadNeck_64",
  "ReconMatrixPE": 110,
  "RepetitionTime": 2.243,
  "SAR": 0.115625,
  "ScanOptions": "PFP\\EXT",
  "ScanningSequence": "EP",
  "SequenceName": "ep_b0",
  "SequenceVariant": "SK\\SS",
  "SeriesDescription": "dMRI_dir106_AP_test_cmrr",
  "SeriesNumber": 9,
  "ShimSetting": [637, -7227, -8807, 652, 56, 13, 60, 0],
  "SliceThickness": 2,
  "SliceTiming": [0, 1.17, 0.1175, 1.2875, 0.235, 1.405, 0.3525, 1.5225, 0.47, 1.64, 0.585, 1.755, 0.7025, 1.8725, 0.82, 1.99, 0.9375, 2.1075, 1.055, 0, 1.17, 0.1175, 1.2875, 0.235, 1.405, 0.3525, 1.5225, 0.47, 1.64, 0.585, 1.755, 0.7025, 1.8725, 0.82, 1.99, 0.9375, 2.1075, 1.055, 0, 1.17, 0.1175, 1.2875, 0.235, 1.405, 0.3525, 1.5225, 0.47, 1.64, 0.585, 1.755, 0.7025, 1.8725, 0.82, 1.99, 0.9375, 2.1075, 1.055],
  "SoftwareVersions": "syngo MR E11",
  "SpacingBetweenSlices": 2,
  "StationName": "MRC35049",
  "TotalReadoutTime": 0.0763001,
  "TxRefAmp": 207.651,
  "WipMemBlock": "12a4b0bb-83b3-450c-9443-e0fada5af9ab||Sequence: R017 ve11c/master r/75a17815+; Jun 28 2022 16:41:33 by eja",
  "dcmmeta_affine": [
    [-2.0, 0.0, 0.0, 109.49686431884766],
    [0.0, 1.9525920152664185, -0.432879239320755, -86.3609390258789],
    [0.0, 0.432879239320755, 1.9525920152664185, -51.487884521484375],
    [0.0, 0.0, 0.0, 1.0]
],
  "dcmmeta_reorient_transform": [
    [0.0, -1.0, 0.0, 109.0],
    [1.0, 0.0, 0.0, 0.0],
    [0.0, 0.0, 1.0, 0.0],
    [0.0, 0.0, 0.0, 1.0]
],
  "dcmmeta_shape": [110, 110, 57, 107],
  "dcmmeta_slice_dim": 2,
  "dcmmeta_version": 0.6,
  "global": {
    "const": {
      "AcquisitionMatrix": [110, 0, 0, 110],
      "AngioFlag": "N",
      "BitsAllocated": 16,
      "BitsStored": 16,
      "BodyPartExamined": "BRAIN",
      "CardiacNumberOfImages": 1,
      "Columns": 880,
      "EchoNumbers": 1,
      "EchoTime": 76.8,
      "EchoTrainLength": 83,
      "FlipAngle": 78.0,
      "HighBit": 15,
      "ImageOrientationPatient": [1.0, 0.0, 0.0, 0.0, 0.97629600560084, -0.2164396207903],
      "ImagePositionPatient": [-879.49686384201, -878.21951591934, 162.35446242584],
      "ImageType": [
        "ORIGINAL",
        "PRIMARY",
        "DIFFUSION",
        "NONE",
        "MB",
        "ND",
        "MOSAIC"
],
      "ImagedNucleus": "1H",
      "ImagingFrequency": 123.258805,
      "InPlanePhaseEncodingDirection": "COL",
      "LargestImagePixelValue": 4095,
      "MRAcquisitionType": "2D",
      "MagneticFieldStrength": 3.0,
      "Manufacturer": "SIEMENS",
      "ManufacturerModelName": "Prisma_fit",
      "Modality": "MR",
      "NominalInterval": 0,
      "NumberOfAverages": 1.0,
      "NumberOfPhaseEncodingSteps": 83,
      "PercentPhaseFieldOfView": 100.0,
      "PercentSampling": 100.0,
      "PerformedProcedureStepStartTime": "130331.404000",
      "PhotometricInterpretation": "MONOCHROME2",
      "PixelBandwidth": 1685.0,
      "PixelRepresentation": 0,
      "PixelSpacing": [2.0, 2.0],
      "ProtocolName": "dMRI_dir106_AP_test_cmrr",
      "RepetitionTime": 2243.0,
      "RescaleIntercept": -4096.0,
      "RescaleSlope": 2.0,
      "RescaleType": "US",
      "Rows": 880,
      "SAR": 0.11562465557784,
      "SamplesPerPixel": 1,
      "ScanOptions": [
        "PFP",
        "EXT"
],
      "ScanningSequence": "EP",
      "SequenceVariant": [
        "SK",
        "SS"
],
      "SeriesDescription": "dMRI_dir106_AP_test_cmrr",
      "SeriesNumber": 9,
      "SeriesTime": "132818.044000",
      "SliceLocation": -31.575485838408,
      "SliceThickness": 2.0,
      "SmallestImagePixelValue": 0,
      "SoftwareVersions": "syngo MR E11",
      "SpacingBetweenSlices": 2.0000000154981,
      "SpecificCharacterSet": "ISO_IR 100",
      "StudyID": "1",
      "StudyTime": "130331.314000",
      "TransmitCoilName": "Body",
      "VariableFlipAngleFlag": "N",
      "WindowCenterWidthExplanation": "Algo1",
      "dBdt": 0.0},
    "slices": {}
  },
  "time": {
    "samples": {
      "AcquisitionNumber": [1, 2, 3, 4, 5, 6, 7, 8, 9, 10, 11, 12, 13, 14, 15, 16, 17, 18, 19, 20, 21, 22, 23, 24, 25, 26, 27, 28, 29, 30, 31, 32, 33, 34, 35, 36, 37, 38, 39, 40, 41, 42, 43, 44, 45, 46, 47, 48, 49, 50, 51, 52, 53, 54, 55, 56, 57, 58, 59, 60, 61, 62, 63, 64, 65, 66, 67, 68, 69, 70, 71, 72, 73, 74, 75, 76, 77, 78, 79, 80, 81, 82, 83, 84, 85, 86, 87, 88, 89, 90, 91, 92, 93, 94, 95, 96, 97, 98, 99, 100, 101, 102, 103, 104, 105, 106, 107],
      "AcquisitionTime": ["132728.695000", "132730.940000", "132733.182500", "132735.425000", "132737.667500", "132739.910000", "132742.155000", "132744.397500", "132746.640000", "132748.882500", "132751.125000", "132753.370000", "132755.612500", "132757.855000", "132800.097500", "132802.340000", "132804.585000", "132806.827500", "132809.070000", "132811.312500", "132813.555000", "132815.800000", "132818.042500", "132820.285000", "132822.527500", "132824.770000", "132827.015000", "132829.257500", "132831.500000", "132833.742500", "132835.985000", "132838.230000", "132840.472500", "132842.715000", "132844.957500", "132847.200000", "132849.445000", "132851.687500", "132853.930000", "132856.172500", "132858.415000", "132900.660000", "132902.902500", "132905.145000", "132907.387500", "132909.630000", "132911.875000", "132914.117500", "132916.360000", "132918.602500", "132920.845000", "132923.090000", "132925.332500", "132927.575000", "132929.817500", "132932.060000", "132934.305000", "132936.547500", "132938.790000", "132941.032500", "132943.275000", "132945.520000", "132947.762500", "132950.005000", "132952.247500", "132954.490000", "132956.735000", "132958.977500", "133001.220000", "133003.462500", "133005.705000", "133007.950000", "133010.192500", "133012.435000", "133014.677500", "133016.920000", "133019.165000", "133021.407500", "133023.650000", "133025.892500", "133028.135000", "133030.380000", "133032.622500", "133034.865000", "133037.107500", "133039.350000", "133041.595000", "133043.837500", "133046.080000", "133048.322500", "133050.565000", "133052.810000", "133055.052500", "133057.295000", "133059.537500", "133101.780000", "133104.025000", "133106.267500", "133108.510000", "133110.752500", "133112.995000", "133115.240000", "133117.482500", "133119.725000", "133121.967500", "133124.210000", "133126.455000"],
      "ContentTime": ["132818.047000", "132818.050000", "132818.053000", "132818.057000", "132818.060000", "132818.063000", "132818.066000", "132818.070000", "132818.073000", "132818.076000", "132818.079000", "132818.082000", "132818.086000", "132818.089000", "132818.092000", "132818.095000", "132818.099000", "132818.102000", "132818.105000", "132818.109000", "132818.112000", "132918.043000", "132918.046000", "132918.049000", "132918.053000", "132918.056000", "132918.059000", "132918.062000", "132918.066000", "132918.069000", "132918.072000", "132918.075000", "132918.078000", "132918.082000", "132918.085000", "132918.088000", "132918.091000", "132918.094000", "132918.097000", "132918.101000", "132918.104000", "132918.107000", "132918.110000", "132918.113000", "132918.117000", "132918.120000", "132918.123000", "132918.126000", "133018.021000", "133018.024000", "133018.028000", "133018.031000", "133018.034000", "133018.037000", "133018.041000", "133018.044000", "133018.047000", "133018.050000", "133018.053000", "133018.057000", "133018.060000", "133018.063000", "133018.066000", "133018.069000", "133018.072000", "133018.076000", "133018.079000", "133018.082000", "133018.085000", "133018.088000", "133018.092000", "133018.095000", "133018.098000", "133018.101000", "133018.104000", "133118.811000", "133118.814000", "133118.817000", "133118.821000", "133118.824000", "133118.827000", "133118.830000", "133118.833000", "133118.837000", "133118.840000", "133118.843000", "133118.846000", "133118.850000", "133118.853000", "133118.856000", "133118.859000", "133118.862000", "133118.866000", "133118.869000", "133118.872000", "133118.875000", "133118.878000", "133118.882000", "133118.885000", "133118.888000", "133118.891000", "133131.605000", "133131.608000", "133131.611000", "133131.615000", "133131.618000", "133131.622000"],
      "InstanceCreationTime": ["132818.047000", "132818.050000", "132818.053000", "132818.057000", "132818.060000", "132818.063000", "132818.066000", "132818.070000", "132818.073000", "132818.076000", "132818.079000", "132818.082000", "132818.086000", "132818.089000", "132818.092000", "132818.095000", "132818.099000", "132818.102000", "132818.105000", "132818.109000", "132818.112000", "132918.043000", "132918.046000", "132918.049000", "132918.053000", "132918.056000", "132918.059000", "132918.062000", "132918.066000", "132918.069000", "132918.072000", "132918.075000", "132918.078000", "132918.082000", "132918.085000", "132918.088000", "132918.091000", "132918.094000", "132918.097000", "132918.101000", "132918.104000", "132918.107000", "132918.110000", "132918.113000", "132918.117000", "132918.120000", "132918.123000", "132918.126000", "133018.021000", "133018.024000", "133018.028000", "133018.031000", "133018.034000", "133018.037000", "133018.041000", "133018.044000", "133018.047000", "133018.050000", "133018.053000", "133018.057000", "133018.060000", "133018.063000", "133018.066000", "133018.069000", "133018.072000", "133018.076000", "133018.079000", "133018.082000", "133018.085000", "133018.088000", "133018.092000", "133018.095000", "133018.098000", "133018.101000", "133018.104000", "133118.811000", "133118.814000", "133118.817000", "133118.821000", "133118.824000", "133118.827000", "133118.830000", "133118.833000", "133118.837000", "133118.840000", "133118.843000", "133118.846000", "133118.850000", "133118.853000", "133118.856000", "133118.859000", "133118.862000", "133118.866000", "133118.869000", "133118.872000", "133118.875000", "133118.878000", "133118.882000", "133118.885000", "133118.888000", "133118.891000", "133131.605000", "133131.608000", "133131.611000", "133131.615000", "133131.618000", "133131.622000"],
      "InstanceNumber": [1, 2, 3, 4, 5, 6, 7, 8, 9, 10, 11, 12, 13, 14, 15, 16, 17, 18, 19, 20, 21, 22, 23, 24, 25, 26, 27, 28, 29, 30, 31, 32, 33, 34, 35, 36, 37, 38, 39, 40, 41, 42, 43, 44, 45, 46, 47, 48, 49, 50, 51, 52, 53, 54, 55, 56, 57, 58, 59, 60, 61, 62, 63, 64, 65, 66, 67, 68, 69, 70, 71, 72, 73, 74, 75, 76, 77, 78, 79, 80, 81, 82, 83, 84, 85, 86, 87, 88, 89, 90, 91, 92, 93, 94, 95, 96, 97, 98, 99, 100, 101, 102, 103, 104, 105, 106, 107],
      "SequenceName": [
 "ep_b0",
 "ep_b0",
 "ep_b1000#2",
 "ep_b2000#3",
 "ep_b1000#4",
 "ep_b1000#5",
 "ep_b300#6",
 "ep_b2000#7",
 "ep_b2000#8",
 "ep_b2000#9",
 "ep_b1000#10",
 "ep_b300#11",
 "ep_b2000#12",
 "ep_b2000#13",
 "ep_b2000#14",
 "ep_b2000#15",
 "ep_b1000#16",
 "ep_b2000#17",
 "ep_b2000#18",
 "ep_b2000#19",
 "ep_b2000#20",
 "ep_b0",
 "ep_b1000#22",
 "ep_b2000#23",
 "ep_b1000#24",
 "ep_b1000#25",
 "ep_b2000#26",
 "ep_b2000#27",
 "ep_b2000#28",
 "ep_b2000#29",
 "ep_b300#30",
 "ep_b2000#31",
 "ep_b1000#32",
 "ep_b2000#33",
 "ep_b2000#34",
 "ep_b300#35",
 "ep_b2000#36",
 "ep_b2000#37",
 "ep_b1000#38",
 "ep_b2000#39",
 "ep_b2000#40",
 "ep_b0",
 "ep_b2000#42",
 "ep_b2000#43",
 "ep_b2000#44",
 "ep_b300#45",
 "ep_b1000#46",
 "ep_b2000#47",
 "ep_b2000#48",
 "ep_b1000#49",
 "ep_b2000#50",
 "ep_b1000#51",
 "ep_b1000#52",
 "ep_b2000#53",
 "ep_b300#54",
 "ep_b1000#55",
 "ep_b2000#56",
 "ep_b1000#57",
 "ep_b2000#58",
 "ep_b2000#59",
 "ep_b1000#60",
 "ep_b0",
 "ep_b1000#62",
 "ep_b2000#63",
 "ep_b2000#64",
 "ep_b2000#65",
 "ep_b2000#66",
 "ep_b300#67",
 "ep_b1000#68",
 "ep_b1000#69",
 "ep_b2000#70",
 "ep_b2000#71",
 "ep_b2000#72",
 "ep_b2000#73",
 "ep_b1000#74",
 "ep_b2000#75",
 "ep_b2000#76",
 "ep_b2000#77",
 "ep_b1000#78",
 "ep_b1000#79",
 "ep_b2000#80",
 "ep_b0",
 "ep_b1000#82",
 "ep_b2000#83",
 "ep_b2000#84",
 "ep_b1000#85",
 "ep_b1000#86",
 "ep_b2000#87",
 "ep_b1000#88",
 "ep_b2000#89",
 "ep_b2000#90",
 "ep_b2000#91",
 "ep_b1000#92",
 "ep_b2000#93",
 "ep_b2000#94",
 "ep_b2000#95",
 "ep_b300#96",
 "ep_b1000#97",
 "ep_b2000#98",
 "ep_b1000#99",
 "ep_b1000#100",
 "ep_b0",
 "ep_b2000#102",
 "ep_b2000#103",
 "ep_b1000#104",
 "ep_b2000#105",
 "ep_b2000#106"
],
      "TriggerTime": [12835.0, 15077.5, 17322.5, 19565.0, 21807.5, 24050.0, 26292.5, 28537.5, 30780.0, 33022.5, 35265.0, 37507.5, 39752.5, 41995.0, 44237.5, 46480.0, 48722.5, 50967.5, 53210.0, 55452.5, 57695.0, 59937.5, 62182.5, 64425.0, 66667.5, 68910.0, 71152.5, 73397.5, 75640.0, 77882.5, 80125.0, 82367.5, 84612.5, 86855.0, 89097.5, 91340.0, 93582.5, 95827.5, 98070.0, 100312.5, 102555.0, 104797.5, 107042.5, 109285.0, 111527.5, 113770.0, 116012.5, 118257.5, 120500.0, 122742.5, 124985.0, 127227.5, 129472.5, 131715.0, 133957.5, 136200.0, 138442.5, 140687.5, 142930.0, 145172.5, 147415.0, 149657.5, 151902.5, 154145.0, 156387.5, 158630.0, 160872.5, 163117.5, 165360.0, 167602.5, 169845.0, 172087.5, 174332.5, 176575.0, 178817.5, 181060.0, 183302.5, 185547.5, 187790.0, 190032.5, 192275.0, 194517.5, 196762.5, 199005.0, 201247.5, 203490.0, 205732.5, 207977.5, 210220.0, 212462.5, 214705.0, 216947.5, 219192.5, 221435.0, 223677.5, 225920.0, 228162.5, 230407.5, 232650.0, 234892.5, 237135.0, 239377.5, 241622.5, 243865.0, 246107.5, 248350.0, 250592.5],
      "WindowCenter": [4524.0, 4526.0, 4312.0, 4562.0, 4552.0, 4714.0, 4480.0, 4444.0, 4806.0, 4544.0, 4744.0, 4528.0, 4872.0, 5126.0, 4914.0, 4606.0, 4934.0, 4790.0, 4148.0, 4904.0, 4550.0, 4500.0, 4982.0, 4374.0, 4548.0, 4730.0, 4800.0, 4562.0, 5066.0, 4596.0, 4616.0, 4720.0, 4700.0, 4754.0, 4774.0, 4410.0, 5010.0, 4458.0, 4986.0, 4496.0, 4940.0, 4456.0, 4360.0, 4628.0, 5000.0, 4564.0, 4330.0, 4848.0, 4414.0, 4606.0, 4912.0, 4956.0, 4406.0, 4652.0, 4602.0, 4762.0, 4830.0, 4128.0, 5088.0, 4390.0, 4756.0, 4688.0, 4436.0, 4968.0, 4066.0, 4926.0, 4558.0, 4462.0, 4496.0, 5070.0, 4628.0, 4250.0, 4430.0, 4250.0, 4842.0, 4264.0, 4018.0, 4764.0, 4460.0, 4840.0, 4516.0, 4528.0, 5008.0, 5082.0, 4896.0, 4420.0, 4678.0, 5018.0, 5078.0, 4166.0, 4074.0, 4890.0, 4526.0, 4948.0, 4306.0, 4932.0, 4470.0, 4190.0, 4726.0, 4902.0, 4460.0, 4560.0, 4796.0, 5054.0, 4450.0, 4698.0, 4212.0],
      "WindowWidth": [18000.0, 17998.0, 17936.0, 18434.0, 18272.0, 18310.0, 18008.0, 18260.0, 18750.0, 18260.0, 18512.0, 18102.0, 18594.0, 18938.0, 18758.0, 18510.0, 18802.0, 18716.0, 17822.0, 18920.0, 18354.0, 17970.0, 18802.0, 18138.0, 18208.0, 18418.0, 18790.0, 18198.0, 18930.0, 18362.0, 18128.0, 18632.0, 18416.0, 18696.0, 18646.0, 17932.0, 18970.0, 18264.0, 18672.0, 18184.0, 18640.0, 17944.0, 18100.0, 18410.0, 18970.0, 18126.0, 17974.0, 18612.0, 18050.0, 18244.0, 18962.0, 18784.0, 18014.0, 18448.0, 18174.0, 18528.0, 18836.0, 17718.0, 18984.0, 18052.0, 18342.0, 18148.0, 18090.0, 18936.0, 17752.0, 18950.0, 18256.0, 18026.0, 18130.0, 18938.0, 18362.0, 18046.0, 18138.0, 17972.0, 18564.0, 18012.0, 17732.0, 18706.0, 18070.0, 18722.0, 18402.0, 17998.0, 18722.0, 18910.0, 18872.0, 18096.0, 18382.0, 18882.0, 18900.0, 17858.0, 17794.0, 18752.0, 18174.0, 19014.0, 17982.0, 18914.0, 17950.0, 17834.0, 18696.0, 18670.0, 18158.0, 18038.0, 18536.0, 19108.0, 17976.0, 18622.0, 17956.0]
    },
    "slices": {}
  }
}