{
  "AcquisitionMatrixPE": 110,
  "AcquisitionNumber": 1,
  "AcquisitionTime": "11:12:20.792500",
  "BandwidthPerPixelPhaseEncode": 12.987,
  "BaseResolution": 110,
  "BodyPartExamined": "BRAIN",
  "CoilCombinationMethod": "Sum of Squares",
  "ConsistencyInfo": "N4_VE11C_LATEST_20160120",
  "ConversionSoftware": "dcm2niix",
  "ConversionSoftwareVersion": "v1.0.20211006",
  "DerivedVendorReportedEchoSpacing": 0.000700001,
  "DeviceSerialNumber": "167006",
  "DiffusionScheme": "Monopolar",
  "DwellTime": 2.7e-06,
  "EchoTime": 0.0816,
  "EchoTrainLength": 83,
  "EffectiveEchoSpacing": 0.000700001,
  "FlipAngle": 78,
  "HeudiconvVersion": "0.5.3.post569+g418601f",
  "ImageComments": "Unaliased MB3/PE3/LB SENSE1",
  "ImageOrientationPatientDICOM": [1, 0, 0, 0, 0.927184, -0.374607],
  "ImageOrientationText": "Tra>Cor(-22.0)",
  "ImageType": [
    "ORIGINAL",
    "PRIMARY",
    "DIFFUSION",
    "NONE",
    "MB",
    "ND",
    "MOSAIC"
],
  "ImagingFrequency": 123.259,
  "InPlanePhaseEncodingDirectionDICOM": "COL",
  "InstitutionAddress": "Chemin Queen-Mary 4565,Montreal,District,CA,H3W 1W5",
  "InstitutionName": "IUGM",
  "InstitutionalDepartmentName": "Department",
  "MRAcquisitionType": "2D",
  "MagneticFieldStrength": 3,
  "Manufacturer": "Siemens",
  "ManufacturersModelName": "Prisma_fit",
  "MatrixCoilMode": "SENSE",
  "Modality": "MR",
  "MultibandAccelerationFactor": 3,
  "PartialFourier": 0.75,
  "PatientPosition": "HFS",
  "PercentPhaseFOV": 100,
  "PercentSampling": 100,
  "PhaseEncodingDirection": "j",
  "PhaseEncodingSteps": 83,
  "PhaseResolution": 1,
  "PixelBandwidth": 1685,
  "ProcedureStepDescription": "anat^generic",
  "ProtocolName": "dMRI_dir98_PA_test_cmrr",
  "PulseSequenceDetails": "%CustomerSeq%\\cmrr_mbep2d_diff",
  "ReceiveCoilActiveElements": "HC1-6",
  "ReceiveCoilName": "HeadNeck_64",
  "ReconMatrixPE": 110,
  "RepetitionTime": 2.334,
  "SAR": 0.12613,
  "ScanOptions": "PFP\\EXT",
  "ScanningSequence": "EP",
  "SequenceName": "ep_b5#1",
  "SequenceVariant": "SK\\SS",
  "SeriesDescription": "dMRI_dir98_PA_test_cmrr",
  "SeriesNumber": 11,
  "ShimSetting": [636, -7174, -8888, 523, 62, 90, 29, -11],
  "SliceThickness": 2,
  "SliceTiming": [0, 1.2175, 0.1225, 1.34, 0.2425, 1.46, 0.365, 1.5825, 0.4875, 1.705, 0.6075, 1.8275, 0.73, 1.9475, 0.8525, 2.07, 0.975, 2.1925, 1.095, 0, 1.2175, 0.1225, 1.34, 0.2425, 1.46, 0.365, 1.5825, 0.4875, 1.705, 0.6075, 1.8275, 0.73, 1.9475, 0.8525, 2.07, 0.975, 2.1925, 1.095, 0, 1.2175, 0.1225, 1.34, 0.2425, 1.46, 0.365, 1.5825, 0.4875, 1.705, 0.6075, 1.8275, 0.73, 1.9475, 0.8525, 2.07, 0.975, 2.1925, 1.095],
  "SoftwareVersions": "syngo MR E11",
  "SpacingBetweenSlices": 2,
  "StationName": "MRC35049",
  "TotalReadoutTime": 0.0763001,
  "TxRefAmp": 237.733,
  "WipMemBlock": "e3b9cdfb-1ac2-4c95-a4f7-ca20be5a2b35||Sequence: R016 ve11c/master r/e634e98; Dec 19 2017 11:11:25 by eja",
  "dcmmeta_affine": [
    [-2.0, 0.0, 0.0, 113.6742935180664],
    [0.0, 1.854367733001709, -0.7492132782936096, -73.66206359863281],
    [0.0, 0.7492132186889648, 1.854367733001709, -71.57323455810547],
    [0.0, 0.0, 0.0, 1.0]
],
  "dcmmeta_reorient_transform": [
    [0.0, -1.0, 0.0, 109.0],
    [1.0, 0.0, 0.0, 0.0],
    [0.0, 0.0, 1.0, 0.0],
    [0.0, 0.0, 0.0, 1.0]
],
  "dcmmeta_shape": [110, 110, 57, 99],
  "dcmmeta_slice_dim": 2,
  "dcmmeta_version": 0.6,
  "global": {
    "const": {
      "AcquisitionMatrix": [110, 0, 0, 110],
      "AngioFlag": "N",
      "BitsAllocated": 16,
      "BitsStored": 16,
      "BodyPartExamined": "BRAIN",
      "CardiacNumberOfImages": 1,
      "Columns": 880,
      "EchoNumbers": 1,
      "EchoTime": 81.6,
      "EchoTrainLength": 83,
      "FlipAngle": 78.0,
      "HighBit": 15,
      "ImageOrientationPatient": [1.0, 0.0, 0.0, 0.0, 0.92718384501902, -0.3746066170475],
      "ImagePositionPatient": [-883.67429590225, -842.39557473917, 298.53810225286],
      "ImageType": [
        "ORIGINAL",
        "PRIMARY",
        "DIFFUSION",
        "NONE",
        "MB",
        "ND",
        "MOSAIC"
],
      "ImagedNucleus": "1H",
      "ImagingFrequency": 123.258979,
      "InPlanePhaseEncodingDirection": "COL",
      "MRAcquisitionType": "2D",
      "MagneticFieldStrength": 3.0,
      "Manufacturer": "SIEMENS",
      "ManufacturerModelName": "Prisma_fit",
      "Modality": "MR",
      "NominalInterval": 0,
      "NumberOfAverages": 1.0,
      "NumberOfPhaseEncodingSteps": 83,
      "PercentPhaseFieldOfView": 100.0,
      "PercentSampling": 100.0,
      "PerformedProcedureStepStartTime": "103709.218000",
      "PhotometricInterpretation": "MONOCHROME2",
      "PixelBandwidth": 1685.0,
      "PixelRepresentation": 0,
      "PixelSpacing": [2.0, 2.0],
      "ProtocolName": "dMRI_dir98_PA_test_cmrr",
      "RepetitionTime": 2334.0,
      "Rows": 880,
      "SAR": 0.12612964312632,
      "SamplesPerPixel": 1,
      "ScanOptions": [
        "PFP",
        "EXT"
],
      "ScanningSequence": "EP",
      "SequenceVariant": [
        "SK",
        "SS"
],
      "SeriesDescription": "dMRI_dir98_PA_test_cmrr",
      "SeriesNumber": 11,
      "SeriesTime": "111316.593000",
      "SliceLocation": -38.767250937302,
      "SliceThickness": 2.0,
      "SmallestImagePixelValue": 0,
      "SoftwareVersions": "syngo MR E11",
      "SpacingBetweenSlices": 2.0000000528847,
      "SpecificCharacterSet": "ISO_IR 100",
      "StudyID": "1",
      "StudyTime": "103709.157000",
      "TransmitCoilName": "Body",
      "VariableFlipAngleFlag": "N",
      "WindowCenterWidthExplanation": "Algo1",
      "dBdt": 0.0},
    "slices": {}
  },
  "time": {
    "samples": {
      "AcquisitionNumber": [1, 2, 3, 4, 5, 6, 7, 8, 9, 10, 11, 12, 13, 14, 15, 16, 17, 18, 19, 20, 21, 22, 23, 24, 25, 26, 27, 28, 29, 30, 31, 32, 33, 34, 35, 36, 37, 38, 39, 40, 41, 42, 43, 44, 45, 46, 47, 48, 49, 50, 51, 52, 53, 54, 55, 56, 57, 58, 59, 60, 61, 62, 63, 64, 65, 66, 67, 68, 69, 70, 71, 72, 73, 74, 75, 76, 77, 78, 79, 80, 81, 82, 83, 84, 85, 86, 87, 88, 89, 90, 91, 92, 93, 94, 95, 96, 97, 98, 99],
      "AcquisitionTime": ["111220.792500", "111223.127500", "111225.460000", "111227.795000", "111230.127500", "111232.462500", "111234.797500", "111237.130000", "111239.465000", "111241.797500", "111244.132500", "111246.467500", "111248.800000", "111251.135000", "111253.467500", "111255.802500", "111258.137500", "111300.470000", "111302.805000", "111305.137500", "111307.472500", "111309.807500", "111312.140000", "111314.475000", "111316.807500", "111319.142500", "111321.477500", "111323.810000", "111326.145000", "111328.477500", "111330.812500", "111333.147500", "111335.480000", "111337.815000", "111340.147500", "111342.482500", "111344.817500", "111347.150000", "111349.485000", "111351.817500", "111354.152500", "111356.487500", "111358.820000", "111401.155000", "111403.487500", "111405.822500", "111408.157500", "111410.490000", "111412.825000", "111415.157500", "111417.492500", "111419.827500", "111422.160000", "111424.495000", "111426.827500", "111429.162500", "111431.497500", "111433.830000", "111436.165000", "111438.497500", "111440.832500", "111443.167500", "111445.500000", "111447.835000", "111450.167500", "111452.502500", "111454.837500", "111457.170000", "111459.505000", "111501.837500", "111504.172500", "111506.507500", "111508.840000", "111511.175000", "111513.507500", "111515.842500", "111518.177500", "111520.510000", "111522.845000", "111525.177500", "111527.512500", "111529.847500", "111532.180000", "111534.515000", "111536.847500", "111539.182500", "111541.517500", "111543.850000", "111546.185000", "111548.517500", "111550.852500", "111553.187500", "111555.520000", "111557.855000", "111600.187500", "111602.522500", "111604.857500", "111607.190000", "111609.525000"],
      "ContentTime": ["111316.595000", "111316.599000", "111316.602000", "111316.606000", "111316.609000", "111316.612000", "111316.615000", "111316.618000", "111316.621000", "111316.625000", "111316.628000", "111316.631000", "111316.634000", "111316.644000", "111316.647000", "111316.650000", "111316.653000", "111316.657000", "111316.660000", "111316.663000", "111316.666000", "111316.669000", "111316.673000", "111416.555000", "111416.558000", "111416.573000", "111416.576000", "111416.579000", "111416.582000", "111416.585000", "111416.594000", "111416.597000", "111416.601000", "111416.604000", "111416.607000", "111416.610000", "111416.613000", "111416.617000", "111416.620000", "111416.623000", "111416.626000", "111416.629000", "111416.632000", "111416.635000", "111416.639000", "111416.642000", "111416.645000", "111416.648000", "111416.651000", "111516.554000", "111516.558000", "111516.561000", "111516.564000", "111516.567000", "111516.570000", "111516.574000", "111516.577000", "111516.580000", "111516.583000", "111516.586000", "111516.589000", "111516.592000", "111516.596000", "111516.599000", "111516.602000", "111516.605000", "111516.608000", "111516.611000", "111516.615000", "111516.618000", "111516.621000", "111516.624000", "111516.627000", "111516.630000", "111516.633000", "111614.223000", "111614.227000", "111614.230000", "111614.233000", "111614.244000", "111614.247000", "111614.250000", "111614.253000", "111614.261000", "111614.264000", "111614.267000", "111614.270000", "111614.273000", "111614.276000", "111614.280000", "111614.283000", "111614.286000", "111614.289000", "111614.292000", "111614.295000", "111614.299000", "111614.302000", "111614.305000", "111614.308000"],
      "InstanceCreationTime": ["111316.595000", "111316.599000", "111316.602000", "111316.606000", "111316.609000", "111316.612000", "111316.615000", "111316.618000", "111316.621000", "111316.625000", "111316.628000", "111316.631000", "111316.634000", "111316.644000", "111316.647000", "111316.650000", "111316.653000", "111316.657000", "111316.660000", "111316.663000", "111316.666000", "111316.669000", "111316.673000", "111416.555000", "111416.558000", "111416.573000", "111416.576000", "111416.579000", "111416.582000", "111416.585000", "111416.594000", "111416.597000", "111416.601000", "111416.604000", "111416.607000", "111416.610000", "111416.613000", "111416.617000", "111416.620000", "111416.623000", "111416.626000", "111416.629000", "111416.632000", "111416.635000", "111416.639000", "111416.642000", "111416.645000", "111416.648000", "111416.651000", "111516.554000", "111516.558000", "111516.561000", "111516.564000", "111516.567000", "111516.570000", "111516.574000", "111516.577000", "111516.580000", "111516.583000", "111516.586000", "111516.589000", "111516.592000", "111516.596000", "111516.599000", "111516.602000", "111516.605000", "111516.608000", "111516.611000", "111516.615000", "111516.618000", "111516.621000", "111516.624000", "111516.627000", "111516.630000", "111516.633000", "111614.223000", "111614.227000", "111614.230000", "111614.233000", "111614.244000", "111614.247000", "111614.250000", "111614.253000", "111614.261000", "111614.264000", "111614.267000", "111614.270000", "111614.273000", "111614.276000", "111614.280000", "111614.283000", "111614.286000", "111614.289000", "111614.292000", "111614.295000", "111614.299000", "111614.302000", "111614.305000", "111614.308000"],
      "InstanceNumber": [1, 2, 3, 4, 5, 6, 7, 8, 9, 10, 11, 12, 13, 14, 15, 16, 17, 18, 19, 20, 21, 22, 23, 24, 25, 26, 27, 28, 29, 30, 31, 32, 33, 34, 35, 36, 37, 38, 39, 40, 41, 42, 43, 44, 45, 46, 47, 48, 49, 50, 51, 52, 53, 54, 55, 56, 57, 58, 59, 60, 61, 62, 63, 64, 65, 66, 67, 68, 69, 70, 71, 72, 73, 74, 75, 76, 77, 78, 79, 80, 81, 82, 83, 84, 85, 86, 87, 88, 89, 90, 91, 92, 93, 94, 95, 96, 97, 98, 99],
      "LargestImagePixelValue": [58940, 58890, 19737, 8223, 18742, 11320, 18041, 9833, 18312, 9633, 22331, 7713, 18295, 8403, 17619, 11441, 18945, 58421, 10055, 18220, 7060, 17637, 8790, 20905, 8044, 18018, 10651, 21052, 9173, 18590, 9329, 18412, 10319, 57423, 20716, 8515, 20633, 13554, 17141, 7985, 18462, 8729, 18912, 9827, 19672, 8963, 20203, 8770, 21293, 57458, 13480, 18118, 8049, 19686, 8269, 17954, 8788, 18161, 8379, 18306, 9986, 17944, 10557, 17749, 8925, 58908, 21774, 9628, 18363, 7754, 19952, 10560, 17059, 11563, 20975, 9052, 20317, 7931, 17864, 7762, 17048, 57560, 10943, 18815, 10025, 19313, 9005, 20795, 7981, 19444, 14346, 20005, 8203, 17885, 8998, 18492, 9681, 18301, 10642],
      "SequenceName": [
 "ep_b5#1",
 "ep_b5#1",
 "ep_b1490#2",
 "ep_b2990#3",
 "ep_b1495#4",
 "ep_b3005#5",
 "ep_b1500#6",
 "ep_b2985#7",
 "ep_b1495#8",
 "ep_b3005#9",
 "ep_b1490#10",
 "ep_b2995#11",
 "ep_b1495#12",
 "ep_b2990#13",
 "ep_b1500#14",
 "ep_b2985#15",
 "ep_b1500#16",
 "ep_b5#17",
 "ep_b3005#18",
 "ep_b1490#19",
 "ep_b2995#20",
 "ep_b1495#21",
 "ep_b3000#22",
 "ep_b1495#23",
 "ep_b3000#24",
 "ep_b1490#25",
 "ep_b2985#26",
 "ep_b1505#27",
 "ep_b2990#28",
 "ep_b1495#29",
 "ep_b3000#30",
 "ep_b1490#31",
 "ep_b3000#32",
 "ep_b5#33",
 "ep_b1505#34",
 "ep_b3000#35",
 "ep_b1490#36",
 "ep_b2985#37",
 "ep_b1495#38",
 "ep_b2995#39",
 "ep_b1500#40",
 "ep_b2995#41",
 "ep_b1500#42",
 "ep_b2990#43",
 "ep_b1495#44",
 "ep_b3000#45",
 "ep_b1495#46",
 "ep_b3000#47",
 "ep_b1490#48",
 "ep_b5#49",
 "ep_b3000#50",
 "ep_b1495#51",
 "ep_b2995#52",
 "ep_b1505#53",
 "ep_b2995#54",
 "ep_b1495#55",
 "ep_b2990#56",
 "ep_b1490#57",
 "ep_b2995#58",
 "ep_b1500#59",
 "ep_b3000#60",
 "ep_b1500#61",
 "ep_b2985#62",
 "ep_b1500#63",
 "ep_b2990#64",
 "ep_b5#65",
 "ep_b1505#66",
 "ep_b3005#67",
 "ep_b1495#68",
 "ep_b3000#69",
 "ep_b1505#70",
 "ep_b3005#71",
 "ep_b1500#72",
 "ep_b3005#73",
 "ep_b1495#74",
 "ep_b2995#75",
 "ep_b1495#76",
 "ep_b2995#77",
 "ep_b1500#78",
 "ep_b3000#79",
 "ep_b1490#80",
 "ep_b5#81",
 "ep_b2990#82",
 "ep_b1500#83",
 "ep_b2985#84",
 "ep_b1495#85",
 "ep_b2995#86",
 "ep_b1495#87",
 "ep_b2990#88",
 "ep_b1490#89",
 "ep_b2985#90",
 "ep_b1500#91",
 "ep_b3000#92",
 "ep_b1495#93",
 "ep_b3005#94",
 "ep_b1495#95",
 "ep_b2990#96",
 "ep_b1500#97",
 "ep_b3000#98"
],
      "TriggerTime": [13297.5, 15630.0, 17965.0, 20300.0, 22632.5, 24967.5, 27300.0, 29635.0, 31970.0, 34302.5, 36637.5, 38970.0, 41305.0, 43640.0, 45972.5, 48307.5, 50640.0, 52975.0, 55310.0, 57642.5, 59977.5, 62310.0, 64645.0, 66980.0, 69312.5, 71647.5, 73980.0, 76315.0, 78650.0, 80982.5, 83317.5, 85650.0, 87985.0, 90320.0, 92652.5, 94987.5, 97320.0, 99655.0, 101990.0, 104322.5, 106657.5, 108990.0, 111325.0, 113660.0, 115992.5, 118327.5, 120660.0, 122995.0, 125330.0, 127662.5, 129997.5, 132330.0, 134665.0, 137000.0, 139332.5, 141667.5, 144000.0, 146335.0, 148670.0, 151002.5, 153337.5, 155670.0, 158005.0, 160340.0, 162672.5, 165007.5, 167340.0, 169675.0, 172010.0, 174342.5, 176677.5, 179010.0, 181345.0, 183680.0, 186012.5, 188347.5, 190680.0, 193015.0, 195350.0, 197682.5, 200017.5, 202350.0, 204685.0, 207020.0, 209352.5, 211687.5, 214020.0, 216355.0, 218690.0, 221022.5, 223357.5, 225690.0, 228025.0, 230360.0, 232692.5, 235027.5, 237360.0, 239695.0, 242030.0],
      "WindowCenter": [7423.0, 7425.0, 2965.0, 1748.0, 2903.0, 1820.0, 2935.0, 1782.0, 2926.0, 1740.0, 2973.0, 1754.0, 2943.0, 1757.0, 2883.0, 1788.0, 2877.0, 7352.0, 1786.0, 2955.0, 1680.0, 2964.0, 1760.0, 2944.0, 1780.0, 2903.0, 1750.0, 2941.0, 1748.0, 2922.0, 1713.0, 2904.0, 1810.0, 7327.0, 2956.0, 1721.0, 2960.0, 1849.0, 2927.0, 1760.0, 2977.0, 1743.0, 2880.0, 1809.0, 2956.0, 1722.0, 2980.0, 1759.0, 2952.0, 7323.0, 1850.0, 2973.0, 1736.0, 2918.0, 1740.0, 2902.0, 1766.0, 2941.0, 1693.0, 2916.0, 1735.0, 2888.0, 1795.0, 2919.0, 1748.0, 7333.0, 2967.0, 1788.0, 2906.0, 1708.0, 2966.0, 1795.0, 2899.0, 1775.0, 2948.0, 1735.0, 2946.0, 1793.0, 2930.0, 1668.0, 2909.0, 7277.0, 1819.0, 2904.0, 1757.0, 2927.0, 1772.0, 2954.0, 1750.0, 2914.0, 1858.0, 2928.0, 1780.0, 2925.0, 1741.0, 2905.0, 1753.0, 2867.0, 1814.0],
      "WindowWidth": [16273.0, 16280.0, 7092.0, 4456.0, 6941.0, 4652.0, 6986.0, 4544.0, 6986.0, 4454.0, 7108.0, 4484.0, 7024.0, 4496.0, 6900.0, 4545.0, 6910.0, 16123.0, 4567.0, 7050.0, 4317.0, 7070.0, 4511.0, 7016.0, 4535.0, 6965.0, 4467.0, 7067.0, 4467.0, 6970.0, 4400.0, 6959.0, 4609.0, 16076.0, 7098.0, 4403.0, 7076.0, 4675.0, 6994.0, 4472.0, 7123.0, 4448.0, 6906.0, 4600.0, 7049.0, 4402.0, 7099.0, 4501.0, 7069.0, 16053.0, 4686.0, 7079.0, 4438.0, 7005.0, 4455.0, 6944.0, 4501.0, 7047.0, 4347.0, 6967.0, 4435.0, 6932.0, 4574.0, 6947.0, 4456.0, 16078.0, 7118.0, 4567.0, 6944.0, 4375.0, 7117.0, 4580.0, 6924.0, 4513.0, 7060.0, 4436.0, 7033.0, 4552.0, 7007.0, 4298.0, 6962.0, 15955.0, 4640.0, 6957.0, 4473.0, 7003.0, 4527.0, 7043.0, 4465.0, 7002.0, 4680.0, 6997.0, 4527.0, 6968.0, 4462.0, 6931.0, 4482.0, 6892.0, 4627.0]
    },
    "slices": {}
  }
}