{
  "AcquisitionMatrixPE": 110,
  "AcquisitionNumber": 1,
  "AcquisitionTime": "11:08:7.602500",
  "BandwidthPerPixelPhaseEncode": 12.987,
  "BaseResolution": 110,
  "BodyPartExamined": "BRAIN",
  "CoilCombinationMethod": "Sum of Squares",
  "ConsistencyInfo": "N4_VE11C_LATEST_20160120",
  "ConversionSoftware": "dcm2niix",
  "ConversionSoftwareVersion": "v1.0.20211006",
  "DerivedVendorReportedEchoSpacing": 0.000700001,
  "DeviceSerialNumber": "167006",
  "DiffusionScheme": "Monopolar",
  "DwellTime": 2.7e-06,
  "EchoTime": 0.0816,
  "EchoTrainLength": 83,
  "EffectiveEchoSpacing": 0.000700001,
  "FlipAngle": 78,
  "HeudiconvVersion": "0.5.3.post569+g418601f",
  "ImageComments": "Unaliased MB3/PE3/LB SENSE1",
  "ImageOrientationPatientDICOM": [1, 0, 0, 0, 0.927184, -0.374607],
  "ImageOrientationText": "Tra>Cor(-22.0)",
  "ImageType": [
    "ORIGINAL",
    "PRIMARY",
    "DIFFUSION",
    "NONE",
    "MB",
    "ND",
    "MOSAIC"
],
  "ImagingFrequency": 123.259,
  "InPlanePhaseEncodingDirectionDICOM": "COL",
  "InstitutionAddress": "Chemin Queen-Mary 4565,Montreal,District,CA,H3W 1W5",
  "InstitutionName": "IUGM",
  "InstitutionalDepartmentName": "Department",
  "MRAcquisitionType": "2D",
  "MagneticFieldStrength": 3,
  "Manufacturer": "Siemens",
  "ManufacturersModelName": "Prisma_fit",
  "MatrixCoilMode": "SENSE",
  "Modality": "MR",
  "MultibandAccelerationFactor": 3,
  "PartialFourier": 0.75,
  "PatientPosition": "HFS",
  "PercentPhaseFOV": 100,
  "PercentSampling": 100,
  "PhaseEncodingDirection": "j-",
  "PhaseEncodingSteps": 83,
  "PhaseResolution": 1,
  "PixelBandwidth": 1685,
  "ProcedureStepDescription": "anat^generic",
  "ProtocolName": "dMRI_dir98_AP_test_cmrr",
  "PulseSequenceDetails": "%CustomerSeq%\\cmrr_mbep2d_diff",
  "ReceiveCoilActiveElements": "HC1-6",
  "ReceiveCoilName": "HeadNeck_64",
  "ReconMatrixPE": 110,
  "RepetitionTime": 2.334,
  "SAR": 0.12613,
  "ScanOptions": "PFP\\EXT",
  "ScanningSequence": "EP",
  "SequenceName": "ep_b5#1",
  "SequenceVariant": "SK\\SS",
  "SeriesDescription": "dMRI_dir98_AP_test_cmrr",
  "SeriesNumber": 7,
  "ShimSetting": [636, -7174, -8888, 523, 62, 90, 29, -11],
  "SliceThickness": 2,
  "SliceTiming": [0, 1.22, 0.1225, 1.34, 0.245, 1.4625, 0.3675, 1.585, 0.4875, 1.705, 0.61, 1.8275, 0.7325, 1.95, 0.8525, 2.0725, 0.975, 2.1925, 1.0975, 0, 1.22, 0.1225, 1.34, 0.245, 1.4625, 0.3675, 1.585, 0.4875, 1.705, 0.61, 1.8275, 0.7325, 1.95, 0.8525, 2.0725, 0.975, 2.1925, 1.0975, 0, 1.22, 0.1225, 1.34, 0.245, 1.4625, 0.3675, 1.585, 0.4875, 1.705, 0.61, 1.8275, 0.7325, 1.95, 0.8525, 2.0725, 0.975, 2.1925, 1.0975],
  "SoftwareVersions": "syngo MR E11",
  "SpacingBetweenSlices": 2,
  "StationName": "MRC35049",
  "TotalReadoutTime": 0.0763001,
  "TxRefAmp": 237.733,
  "WipMemBlock": "34a2d008-9f2c-4697-9454-01ec920f5d3f||Sequence: R016 ve11c/master r/e634e98; Dec 19 2017 11:11:25 by eja",
  "dcmmeta_affine": [
    [-2.0, 0.0, 0.0, 113.6742935180664],
    [0.0, 1.854367733001709, -0.7492132782936096, -73.66206359863281],
    [0.0, 0.7492132186889648, 1.854367733001709, -71.57323455810547],
    [0.0, 0.0, 0.0, 1.0]
],
  "dcmmeta_reorient_transform": [
    [0.0, -1.0, 0.0, 109.0],
    [1.0, 0.0, 0.0, 0.0],
    [0.0, 0.0, 1.0, 0.0],
    [0.0, 0.0, 0.0, 1.0]
],
  "dcmmeta_shape": [110, 110, 57, 99],
  "dcmmeta_slice_dim": 2,
  "dcmmeta_version": 0.6,
  "global": {
    "const": {
      "AcquisitionMatrix": [110, 0, 0, 110],
      "AngioFlag": "N",
      "BitsAllocated": 16,
      "BitsStored": 16,
      "BodyPartExamined": "BRAIN",
      "CardiacNumberOfImages": 1,
      "Columns": 880,
      "EchoNumbers": 1,
      "EchoTime": 81.6,
      "EchoTrainLength": 83,
      "FlipAngle": 78.0,
      "HighBit": 15,
      "ImageOrientationPatient": [1.0, 0.0, 0.0, 0.0, 0.92718384501902, -0.3746066170475],
      "ImagePositionPatient": [-883.67429590225, -842.39557473917, 298.53810225286],
      "ImageType": [
        "ORIGINAL",
        "PRIMARY",
        "DIFFUSION",
        "NONE",
        "MB",
        "ND",
        "MOSAIC"
],
      "ImagedNucleus": "1H",
      "ImagingFrequency": 123.258975,
      "InPlanePhaseEncodingDirection": "COL",
      "MRAcquisitionType": "2D",
      "MagneticFieldStrength": 3.0,
      "Manufacturer": "SIEMENS",
      "ManufacturerModelName": "Prisma_fit",
      "Modality": "MR",
      "NominalInterval": 0,
      "NumberOfAverages": 1.0,
      "NumberOfPhaseEncodingSteps": 83,
      "PercentPhaseFieldOfView": 100.0,
      "PercentSampling": 100.0,
      "PerformedProcedureStepStartTime": "103709.218000",
      "PhotometricInterpretation": "MONOCHROME2",
      "PixelBandwidth": 1685.0,
      "PixelRepresentation": 0,
      "PixelSpacing": [2.0, 2.0],
      "ProtocolName": "dMRI_dir98_AP_test_cmrr",
      "RepetitionTime": 2334.0,
      "Rows": 880,
      "SAR": 0.12612964312632,
      "SamplesPerPixel": 1,
      "ScanOptions": [
        "PFP",
        "EXT"
],
      "ScanningSequence": "EP",
      "SequenceVariant": [
        "SK",
        "SS"
],
      "SeriesDescription": "dMRI_dir98_AP_test_cmrr",
      "SeriesNumber": 7,
      "SeriesTime": "110856.791000",
      "SliceLocation": -38.767250937302,
      "SliceThickness": 2.0,
      "SmallestImagePixelValue": 0,
      "SoftwareVersions": "syngo MR E11",
      "SpacingBetweenSlices": 2.0000000528847,
      "SpecificCharacterSet": "ISO_IR 100",
      "StudyID": "1",
      "StudyTime": "103709.157000",
      "TransmitCoilName": "Body",
      "VariableFlipAngleFlag": "N",
      "WindowCenterWidthExplanation": "Algo1",
      "dBdt": 0.0},
    "slices": {}
  },
  "time": {
    "samples": {
      "AcquisitionNumber": [1, 2, 3, 4, 5, 6, 7, 8, 9, 10, 11, 12, 13, 14, 15, 16, 17, 18, 19, 20, 21, 22, 23, 24, 25, 26, 27, 28, 29, 30, 31, 32, 33, 34, 35, 36, 37, 38, 39, 40, 41, 42, 43, 44, 45, 46, 47, 48, 49, 50, 51, 52, 53, 54, 55, 56, 57, 58, 59, 60, 61, 62, 63, 64, 65, 66, 67, 68, 69, 70, 71, 72, 73, 74, 75, 76, 77, 78, 79, 80, 81, 82, 83, 84, 85, 86, 87, 88, 89, 90, 91, 92, 93, 94, 95, 96, 97, 98, 99],
      "AcquisitionTime": ["110807.602500", "110809.937500", "110812.272500", "110814.605000", "110816.940000", "110819.272500", "110821.607500", "110823.942500", "110826.275000", "110828.610000", "110830.942500", "110833.277500", "110835.612500", "110837.945000", "110840.280000", "110842.612500", "110844.947500", "110847.282500", "110849.615000", "110851.950000", "110854.282500", "110856.617500", "110858.952500", "110901.285000", "110903.620000", "110905.952500", "110908.287500", "110910.622500", "110912.955000", "110915.290000", "110917.622500", "110919.957500", "110922.292500", "110924.625000", "110926.960000", "110929.292500", "110931.627500", "110933.962500", "110936.295000", "110938.630000", "110940.962500", "110943.297500", "110945.632500", "110947.965000", "110950.300000", "110952.632500", "110954.967500", "110957.302500", "110959.635000", "111001.970000", "111004.302500", "111006.637500", "111008.972500", "111011.305000", "111013.640000", "111015.972500", "111018.307500", "111020.642500", "111022.975000", "111025.310000", "111027.642500", "111029.977500", "111032.312500", "111034.645000", "111036.980000", "111039.312500", "111041.647500", "111043.982500", "111046.315000", "111048.650000", "111050.982500", "111053.317500", "111055.652500", "111057.985000", "111100.320000", "111102.652500", "111104.987500", "111107.322500", "111109.655000", "111111.990000", "111114.322500", "111116.657500", "111118.992500", "111121.325000", "111123.660000", "111125.992500", "111128.327500", "111130.662500", "111132.995000", "111135.330000", "111137.662500", "111139.997500", "111142.332500", "111144.665000", "111147.000000", "111149.332500", "111151.667500", "111154.002500", "111156.335000"],
      "ContentTime": ["110856.794000", "110856.798000", "110856.801000", "110856.804000", "110856.816000", "110856.820000", "110856.823000", "110856.826000", "110856.829000", "110856.832000", "110856.835000", "110856.838000", "110856.841000", "110856.845000", "110856.848000", "110856.851000", "110856.854000", "110856.857000", "110856.860000", "110856.863000", "110956.763000", "110956.766000", "110956.770000", "110956.773000", "110956.776000", "110956.779000", "110956.783000", "110956.786000", "110956.789000", "110956.797000", "110956.800000", "110956.803000", "110956.806000", "110956.810000", "110956.813000", "110956.816000", "110956.819000", "110956.822000", "110956.825000", "110956.828000", "110956.832000", "110956.835000", "110956.838000", "110956.841000", "110956.844000", "110956.847000", "111056.764000", "111056.768000", "111056.771000", "111056.774000", "111056.777000", "111056.780000", "111056.784000", "111056.787000", "111056.790000", "111056.793000", "111056.796000", "111056.799000", "111056.802000", "111056.812000", "111056.815000", "111056.818000", "111056.821000", "111056.824000", "111056.828000", "111056.831000", "111056.834000", "111056.837000", "111056.840000", "111056.843000", "111056.846000", "111056.849000", "111156.763000", "111156.766000", "111156.770000", "111156.773000", "111156.776000", "111156.779000", "111156.783000", "111156.786000", "111156.789000", "111156.792000", "111156.795000", "111156.798000", "111156.801000", "111156.805000", "111156.808000", "111156.811000", "111156.814000", "111156.817000", "111156.820000", "111156.824000", "111156.827000", "111156.830000", "111156.833000", "111156.836000", "111156.839000", "111201.689000", "111201.692000"],
      "InstanceCreationTime": ["110856.794000", "110856.798000", "110856.801000", "110856.804000", "110856.816000", "110856.820000", "110856.823000", "110856.826000", "110856.829000", "110856.832000", "110856.835000", "110856.838000", "110856.841000", "110856.845000", "110856.848000", "110856.851000", "110856.854000", "110856.857000", "110856.860000", "110856.863000", "110956.763000", "110956.766000", "110956.770000", "110956.773000", "110956.776000", "110956.779000", "110956.783000", "110956.786000", "110956.789000", "110956.797000", "110956.800000", "110956.803000", "110956.806000", "110956.810000", "110956.813000", "110956.816000", "110956.819000", "110956.822000", "110956.825000", "110956.828000", "110956.832000", "110956.835000", "110956.838000", "110956.841000", "110956.844000", "110956.847000", "111056.764000", "111056.768000", "111056.771000", "111056.774000", "111056.777000", "111056.780000", "111056.784000", "111056.787000", "111056.790000", "111056.793000", "111056.796000", "111056.799000", "111056.802000", "111056.812000", "111056.815000", "111056.818000", "111056.821000", "111056.824000", "111056.828000", "111056.831000", "111056.834000", "111056.837000", "111056.840000", "111056.843000", "111056.846000", "111056.849000", "111156.763000", "111156.766000", "111156.770000", "111156.773000", "111156.776000", "111156.779000", "111156.783000", "111156.786000", "111156.789000", "111156.792000", "111156.795000", "111156.798000", "111156.801000", "111156.805000", "111156.808000", "111156.811000", "111156.814000", "111156.817000", "111156.820000", "111156.824000", "111156.827000", "111156.830000", "111156.833000", "111156.836000", "111156.839000", "111201.689000", "111201.692000"],
      "InstanceNumber": [1, 2, 3, 4, 5, 6, 7, 8, 9, 10, 11, 12, 13, 14, 15, 16, 17, 18, 19, 20, 21, 22, 23, 24, 25, 26, 27, 28, 29, 30, 31, 32, 33, 34, 35, 36, 37, 38, 39, 40, 41, 42, 43, 44, 45, 46, 47, 48, 49, 50, 51, 52, 53, 54, 55, 56, 57, 58, 59, 60, 61, 62, 63, 64, 65, 66, 67, 68, 69, 70, 71, 72, 73, 74, 75, 76, 77, 78, 79, 80, 81, 82, 83, 84, 85, 86, 87, 88, 89, 90, 91, 92, 93, 94, 95, 96, 97, 98, 99],
      "LargestImagePixelValue": [59100, 47946, 11529, 5224, 11881, 5557, 10983, 6958, 11204, 6057, 13096, 4715, 10992, 5662, 11835, 7812, 12134, 54446, 5929, 10703, 6158, 10814, 6352, 11979, 4442, 11510, 7212, 11655, 5749, 10125, 6721, 13069, 5898, 52434, 11158, 5886, 11897, 5902, 10589, 5049, 11772, 6090, 13009, 5005, 10804, 7006, 11625, 6084, 13149, 50652, 6367, 10563, 4704, 11353, 6645, 10403, 5401, 10438, 6337, 12162, 7290, 11194, 5978, 10800, 5762, 49198, 12543, 5805, 10541, 5878, 12735, 6466, 11649, 6868, 13194, 5422, 11487, 4839, 10292, 6576, 11895, 49129, 5550, 12787, 6438, 11118, 6766, 10939, 4628, 11975, 7229, 11689, 4499, 10458, 6844, 11419, 6938, 11611, 5694],
      "SequenceName": [
 "ep_b5#1",
 "ep_b5#1",
 "ep_b1490#2",
 "ep_b2990#3",
 "ep_b1495#4",
 "ep_b3005#5",
 "ep_b1500#6",
 "ep_b2985#7",
 "ep_b1495#8",
 "ep_b3005#9",
 "ep_b1490#10",
 "ep_b2995#11",
 "ep_b1495#12",
 "ep_b2990#13",
 "ep_b1500#14",
 "ep_b2985#15",
 "ep_b1500#16",
 "ep_b5#17",
 "ep_b3005#18",
 "ep_b1490#19",
 "ep_b2995#20",
 "ep_b1495#21",
 "ep_b3000#22",
 "ep_b1495#23",
 "ep_b3000#24",
 "ep_b1490#25",
 "ep_b2985#26",
 "ep_b1505#27",
 "ep_b2990#28",
 "ep_b1495#29",
 "ep_b3000#30",
 "ep_b1490#31",
 "ep_b3000#32",
 "ep_b5#33",
 "ep_b1505#34",
 "ep_b3000#35",
 "ep_b1490#36",
 "ep_b2985#37",
 "ep_b1495#38",
 "ep_b2995#39",
 "ep_b1500#40",
 "ep_b2995#41",
 "ep_b1500#42",
 "ep_b2990#43",
 "ep_b1495#44",
 "ep_b3000#45",
 "ep_b1495#46",
 "ep_b3000#47",
 "ep_b1490#48",
 "ep_b5#49",
 "ep_b3000#50",
 "ep_b1495#51",
 "ep_b2995#52",
 "ep_b1505#53",
 "ep_b2995#54",
 "ep_b1495#55",
 "ep_b2990#56",
 "ep_b1490#57",
 "ep_b2995#58",
 "ep_b1500#59",
 "ep_b3000#60",
 "ep_b1500#61",
 "ep_b2985#62",
 "ep_b1500#63",
 "ep_b2990#64",
 "ep_b5#65",
 "ep_b1505#66",
 "ep_b3005#67",
 "ep_b1495#68",
 "ep_b3000#69",
 "ep_b1505#70",
 "ep_b3005#71",
 "ep_b1500#72",
 "ep_b3005#73",
 "ep_b1495#74",
 "ep_b2995#75",
 "ep_b1495#76",
 "ep_b2995#77",
 "ep_b1500#78",
 "ep_b3000#79",
 "ep_b1490#80",
 "ep_b5#81",
 "ep_b2990#82",
 "ep_b1500#83",
 "ep_b2985#84",
 "ep_b1495#85",
 "ep_b2995#86",
 "ep_b1495#87",
 "ep_b2990#88",
 "ep_b1490#89",
 "ep_b2985#90",
 "ep_b1500#91",
 "ep_b3000#92",
 "ep_b1495#93",
 "ep_b3005#94",
 "ep_b1495#95",
 "ep_b2990#96",
 "ep_b1500#97",
 "ep_b3000#98"
],
      "TriggerTime": [13295.0, 15630.0, 17962.5, 20297.5, 22632.5, 24965.0, 27300.0, 29632.5, 31967.5, 34302.5, 36635.0, 38970.0, 41302.5, 43637.5, 45972.5, 48305.0, 50640.0, 52972.5, 55307.5, 57642.5, 59975.0, 62310.0, 64642.5, 66977.5, 69312.5, 71645.0, 73980.0, 76312.5, 78647.5, 80982.5, 83315.0, 85650.0, 87982.5, 90317.5, 92652.5, 94985.0, 97320.0, 99652.5, 101987.5, 104322.5, 106655.0, 108990.0, 111322.5, 113657.5, 115992.5, 118325.0, 120660.0, 122992.5, 125327.5, 127662.5, 129995.0, 132330.0, 134662.5, 136997.5, 139332.5, 141665.0, 144000.0, 146332.5, 148667.5, 151002.5, 153335.0, 155670.0, 158002.5, 160337.5, 162672.5, 165005.0, 167340.0, 169672.5, 172007.5, 174342.5, 176675.0, 179010.0, 181342.5, 183677.5, 186012.5, 188345.0, 190680.0, 193012.5, 195347.5, 197682.5, 200015.0, 202350.0, 204682.5, 207017.5, 209352.5, 211685.0, 214020.0, 216352.5, 218687.5, 221022.5, 223355.0, 225690.0, 228022.5, 230357.5, 232692.5, 235025.0, 237360.0, 239692.5, 242027.5],
      "WindowCenter": [7277.0, 7205.0, 2736.0, 1594.0, 2790.0, 1634.0, 2790.0, 1602.0, 2710.0, 1616.0, 2741.0, 1596.0, 2820.0, 1610.0, 2749.0, 1652.0, 2717.0, 7182.0, 1636.0, 2756.0, 1629.0, 2737.0, 1605.0, 2711.0, 1603.0, 2730.0, 1640.0, 2765.0, 1593.0, 2765.0, 1631.0, 2761.0, 1630.0, 7167.0, 2753.0, 1584.0, 2694.0, 1620.0, 2738.0, 1657.0, 2748.0, 1583.0, 2761.0, 1627.0, 2704.0, 1653.0, 2695.0, 1614.0, 2759.0, 7193.0, 1628.0, 2776.0, 1589.0, 2724.0, 1619.0, 2715.0, 1658.0, 2768.0, 1613.0, 2721.0, 1621.0, 2712.0, 1615.0, 2798.0, 1623.0, 7138.0, 2752.0, 1625.0, 2731.0, 1647.0, 2734.0, 1613.0, 2748.0, 1626.0, 2738.0, 1580.0, 2756.0, 1625.0, 2779.0, 1625.0, 2750.0, 7169.0, 1636.0, 2719.0, 1605.0, 2806.0, 1606.0, 2682.0, 1552.0, 2723.0, 1652.0, 2721.0, 1591.0, 2809.0, 1635.0, 2749.0, 1616.0, 2752.0, 1640.0],
      "WindowWidth": [15661.0, 15557.0, 6499.0, 4112.0, 6600.0, 4180.0, 6599.0, 4126.0, 6451.0, 4143.0, 6503.0, 4118.0, 6650.0, 4164.0, 6517.0, 4213.0, 6458.0, 15470.0, 4195.0, 6542.0, 4173.0, 6487.0, 4139.0, 6448.0, 4146.0, 6493.0, 4184.0, 6542.0, 4126.0, 6552.0, 4188.0, 6540.0, 4167.0, 15449.0, 6523.0, 4084.0, 6420.0, 4154.0, 6498.0, 4254.0, 6501.0, 4080.0, 6535.0, 4179.0, 6450.0, 4207.0, 6412.0, 4177.0, 6531.0, 15497.0, 4164.0, 6560.0, 4126.0, 6474.0, 4174.0, 6456.0, 4234.0, 6557.0, 4138.0, 6467.0, 4143.0, 6457.0, 4144.0, 6607.0, 4180.0, 15393.0, 6517.0, 4183.0, 6493.0, 4216.0, 6474.0, 4138.0, 6516.0, 4156.0, 6493.0, 4101.0, 6541.0, 4180.0, 6573.0, 4165.0, 6518.0, 15450.0, 4191.0, 6457.0, 4110.0, 6621.0, 4147.0, 6399.0, 4032.0, 6477.0, 4211.0, 6466.0, 4127.0, 6628.0, 4201.0, 6521.0, 4159.0, 6532.0, 4184.0]
    },
    "slices": {}
  }
}