{
  "AcquisitionMatrixPE": 110,
  "AcquisitionNumber": 1,
  "AcquisitionTime": "10:59:13.620000",
  "BandwidthPerPixelPhaseEncode": 12.987,
  "BaseResolution": 110,
  "BodyPartExamined": "BRAIN",
  "CoilCombinationMethod": "Sum of Squares",
  "ConsistencyInfo": "N4_VE11C_LATEST_20160120",
  "ConversionSoftware": "dcm2niix",
  "ConversionSoftwareVersion": "v1.0.20211006",
  "DerivedVendorReportedEchoSpacing": 0.000700001,
  "DeviceSerialNumber": "167006",
  "DiffusionScheme": "Monopolar",
  "DwellTime": 2.7e-06,
  "EchoTime": 0.0768,
  "EchoTrainLength": 83,
  "EffectiveEchoSpacing": 0.000700001,
  "FlipAngle": 78,
  "HeudiconvVersion": "0.11.3.post9+gc939bf8",
  "ImageComments": "Unaliased MB3/PE3/LB SENSE1+",
  "ImageOrientationPatientDICOM": [1, 0, 0, 0, 0.838671, -0.544639],
  "ImageOrientationText": "Tra>Cor(-33.0)",
  "ImageType": [
    "ORIGINAL",
    "PRIMARY",
    "DIFFUSION",
    "NONE",
    "MB",
    "ND",
    "MOSAIC"
],
  "ImagingFrequency": 123.259,
  "InPlanePhaseEncodingDirectionDICOM": "COL",
  "InstitutionAddress": "Chemin Queen-Mary 4565,Montreal,District,CA,H3W 1W5",
  "InstitutionName": "IUGM",
  "InstitutionalDepartmentName": "Department",
  "MRAcquisitionType": "2D",
  "MagneticFieldStrength": 3,
  "Manufacturer": "Siemens",
  "ManufacturersModelName": "Prisma_fit",
  "MatrixCoilMode": "SENSE",
  "Modality": "MR",
  "MultibandAccelerationFactor": 3,
  "PartialFourier": 0.75,
  "PatientPosition": "HFS",
  "PercentPhaseFOV": 100,
  "PercentSampling": 100,
  "PhaseEncodingDirection": "j",
  "PhaseEncodingSteps": 83,
  "PhaseResolution": 1,
  "PixelBandwidth": 1685,
  "ProcedureStepDescription": "anat^generic",
  "ProtocolName": "dMRI_dir106_PA_test_cmrr",
  "PulseSequenceDetails": "%CustomerSeq%\\cmrr_mbep2d_diff",
  "ReceiveCoilActiveElements": "HC1-6",
  "ReceiveCoilName": "HeadNeck_64",
  "ReconMatrixPE": 110,
  "RepetitionTime": 2.243,
  "SAR": 0.138044,
  "ScanOptions": "PFP\\EXT",
  "ScanningSequence": "EP",
  "SequenceName": "ep_b0",
  "SequenceVariant": "SK\\SS",
  "SeriesDescription": "dMRI_dir106_PA_test_cmrr",
  "SeriesNumber": 15,
  "ShimSetting": [617, -7212, -8877, 343, -8, -223, 86, 19],
  "SliceThickness": 2,
  "SliceTiming": [0, 1.17, 0.115, 1.285, 0.2325, 1.4025, 0.35, 1.52, 0.4675, 1.6375, 0.585, 1.755, 0.7, 1.87, 0.8175, 1.9875, 0.935, 2.105, 1.0525, 0, 1.17, 0.115, 1.285, 0.2325, 1.4025, 0.35, 1.52, 0.4675, 1.6375, 0.585, 1.755, 0.7, 1.87, 0.8175, 1.9875, 0.935, 2.105, 1.0525, 0, 1.17, 0.115, 1.285, 0.2325, 1.4025, 0.35, 1.52, 0.4675, 1.6375, 0.585, 1.755, 0.7, 1.87, 0.8175, 1.9875, 0.935, 2.105, 1.0525],
  "SoftwareVersions": "syngo MR E11",
  "SpacingBetweenSlices": 2,
  "StationName": "MRC35049",
  "TotalReadoutTime": 0.0763001,
  "TxRefAmp": 247.758,
  "WipMemBlock": "12acac48-df52-4b41-a6e9-29c990f56f5a||Sequence: R017 ve11c/master r/75a17815+; Jun 28 2022 16:41:33 by eja",
  "dcmmeta_affine": [
    [-2.0, 0.0, 0.0, 110.0],
    [0.0, 1.677341103553772, -1.0892781019210815, -67.40977478027344],
    [0.0, 1.0892781019210815, 1.677341103553772, -105.0521240234375],
    [0.0, 0.0, 0.0, 1.0]
],
  "dcmmeta_reorient_transform": [
    [0.0, -1.0, 0.0, 109.0],
    [1.0, 0.0, 0.0, 0.0],
    [0.0, 0.0, 1.0, 0.0],
    [0.0, 0.0, 0.0, 1.0]
],
  "dcmmeta_shape": [110, 110, 57, 107],
  "dcmmeta_slice_dim": 2,
  "dcmmeta_version": 0.6,
  "global": {
    "const": {
      "AcquisitionMatrix": [110, 0, 0, 110],
      "AngioFlag": "N",
      "BitsAllocated": 16,
      "BitsStored": 16,
      "BodyPartExamined": "BRAIN",
      "CardiacNumberOfImages": 1,
      "Columns": 880,
      "EchoNumbers": 1,
      "EchoTime": 76.8,
      "EchoTrainLength": 83,
      "FlipAngle": 78.0,
      "HighBit": 15,
      "ImageOrientationPatient": [1.0, 0.0, 0.0, 0.0, 0.83867056370374, -0.5446390415466],
      "ImagePositionPatient": [-880.0, -761.19674301669, 433.05125075661],
      "ImageType": [
        "ORIGINAL",
        "PRIMARY",
        "DIFFUSION",
        "NONE",
        "MB",
        "ND",
        "MOSAIC"
],
      "ImagedNucleus": "1H",
      "ImagingFrequency": 123.258812,
      "InPlanePhaseEncodingDirection": "COL",
      "MRAcquisitionType": "2D",
      "MagneticFieldStrength": 3.0,
      "Manufacturer": "SIEMENS",
      "ManufacturerModelName": "Prisma_fit",
      "Modality": "MR",
      "NominalInterval": 0,
      "NumberOfAverages": 1.0,
      "NumberOfPhaseEncodingSteps": 83,
      "PercentPhaseFieldOfView": 100.0,
      "PercentSampling": 100.0,
      "PerformedProcedureStepStartTime": "092804.971000",
      "PhotometricInterpretation": "MONOCHROME2",
      "PixelBandwidth": 1685.0,
      "PixelRepresentation": 0,
      "PixelSpacing": [2.0, 2.0],
      "ProtocolName": "dMRI_dir106_PA_test_cmrr",
      "RepetitionTime": 2243.0,
      "Rows": 880,
      "SAR": 0.13804385088861,
      "SamplesPerPixel": 1,
      "ScanOptions": [
        "PFP",
        "EXT"
],
      "ScanningSequence": "EP",
      "SequenceVariant": [
        "SK",
        "SS"
],
      "SeriesDescription": "dMRI_dir106_PA_test_cmrr",
      "SeriesNumber": 15,
      "SeriesTime": "110014.089000",
      "SliceLocation": -51.390127960386,
      "SliceThickness": 2.0,
      "SmallestImagePixelValue": 0,
      "SoftwareVersions": "syngo MR E11",
      "SpacingBetweenSlices": 1.999999976706,
      "SpecificCharacterSet": "ISO_IR 100",
      "StudyID": "1",
      "StudyTime": "092804.869000",
      "TransmitCoilName": "Body",
      "VariableFlipAngleFlag": "N",
      "WindowCenterWidthExplanation": "Algo1",
      "dBdt": 0.0},
    "slices": {}
  },
  "time": {
    "samples": {
      "AcquisitionNumber": [1, 2, 3, 4, 5, 6, 7, 8, 9, 10, 11, 12, 13, 14, 15, 16, 17, 18, 19, 20, 21, 22, 23, 24, 25, 26, 27, 28, 29, 30, 31, 32, 33, 34, 35, 36, 37, 38, 39, 40, 41, 42, 43, 44, 45, 46, 47, 48, 49, 50, 51, 52, 53, 54, 55, 56, 57, 58, 59, 60, 61, 62, 63, 64, 65, 66, 67, 68, 69, 70, 71, 72, 73, 74, 75, 76, 77, 78, 79, 80, 81, 82, 83, 84, 85, 86, 87, 88, 89, 90, 91, 92, 93, 94, 95, 96, 97, 98, 99, 100, 101, 102, 103, 104, 105, 106, 107],
      "AcquisitionTime": ["105913.620000", "105915.862500", "105918.105000", "105920.347500", "105922.590000", "105924.835000", "105927.077500", "105929.320000", "105931.562500", "105933.805000", "105936.050000", "105938.292500", "105940.535000", "105942.777500", "105945.020000", "105947.265000", "105949.507500", "105951.750000", "105953.992500", "105956.235000", "105958.480000", "110000.722500", "110002.965000", "110005.207500", "110007.450000", "110009.695000", "110011.937500", "110014.180000", "110016.422500", "110018.665000", "110020.910000", "110023.152500", "110025.395000", "110027.637500", "110029.880000", "110032.125000", "110034.367500", "110036.610000", "110038.852500", "110041.095000", "110043.340000", "110045.582500", "110047.825000", "110050.067500", "110052.310000", "110054.555000", "110056.797500", "110059.040000", "110101.282500", "110103.525000", "110105.770000", "110108.012500", "110110.255000", "110112.497500", "110114.740000", "110116.985000", "110119.227500", "110121.470000", "110123.712500", "110125.955000", "110128.200000", "110130.442500", "110132.685000", "110134.927500", "110137.170000", "110139.415000", "110141.657500", "110143.900000", "110146.142500", "110148.385000", "110150.630000", "110152.872500", "110155.115000", "110157.357500", "110159.600000", "110201.845000", "110204.087500", "110206.330000", "110208.572500", "110210.815000", "110213.060000", "110215.302500", "110217.545000", "110219.787500", "110222.030000", "110224.275000", "110226.517500", "110228.760000", "110231.002500", "110233.245000", "110235.490000", "110237.732500", "110239.975000", "110242.217500", "110244.460000", "110246.705000", "110248.947500", "110251.190000", "110253.432500", "110255.675000", "110257.920000", "110300.162500", "110302.405000", "110304.647500", "110306.890000", "110309.135000", "110311.377500"],
      "ContentTime": ["110014.091000", "110014.095000", "110014.098000", "110014.101000", "110014.104000", "110014.107000", "110014.110000", "110014.113000", "110014.116000", "110014.120000", "110014.123000", "110014.126000", "110014.129000", "110014.132000", "110014.136000", "110014.139000", "110014.142000", "110014.145000", "110014.148000", "110014.151000", "110014.154000", "110014.157000", "110014.160000", "110014.163000", "110014.166000", "110014.170000", "110114.056000", "110114.059000", "110114.062000", "110114.066000", "110114.069000", "110114.079000", "110114.082000", "110114.085000", "110114.088000", "110114.091000", "110114.094000", "110114.098000", "110114.101000", "110114.118000", "110114.121000", "110114.124000", "110114.127000", "110114.130000", "110114.134000", "110114.137000", "110114.140000", "110114.143000", "110114.146000", "110114.149000", "110114.153000", "110114.156000", "110114.159000", "110214.055000", "110214.058000", "110214.062000", "110214.065000", "110214.068000", "110214.071000", "110214.074000", "110214.077000", "110214.080000", "110214.084000", "110214.087000", "110214.090000", "110214.093000", "110214.096000", "110214.099000", "110214.102000", "110214.105000", "110214.108000", "110214.111000", "110214.114000", "110214.118000", "110214.121000", "110214.124000", "110214.127000", "110214.130000", "110214.134000", "110214.137000", "110234.055000", "110234.058000", "110234.061000", "110234.064000", "110234.068000", "110234.071000", "110234.074000", "110234.077000", "110234.080000", "110315.943000", "110315.946000", "110315.950000", "110315.953000", "110315.964000", "110315.967000", "110315.970000", "110315.973000", "110315.981000", "110315.984000", "110315.987000", "110315.990000", "110315.993000", "110315.996000", "110316.001000", "110316.004000", "110316.007000", "110316.010000"],
      "InstanceCreationTime": ["110014.091000", "110014.095000", "110014.098000", "110014.101000", "110014.104000", "110014.107000", "110014.110000", "110014.113000", "110014.116000", "110014.120000", "110014.123000", "110014.126000", "110014.129000", "110014.132000", "110014.136000", "110014.139000", "110014.142000", "110014.145000", "110014.148000", "110014.151000", "110014.154000", "110014.157000", "110014.160000", "110014.163000", "110014.166000", "110014.170000", "110114.056000", "110114.059000", "110114.062000", "110114.066000", "110114.069000", "110114.079000", "110114.082000", "110114.085000", "110114.088000", "110114.091000", "110114.094000", "110114.098000", "110114.101000", "110114.118000", "110114.121000", "110114.124000", "110114.127000", "110114.130000", "110114.134000", "110114.137000", "110114.140000", "110114.143000", "110114.146000", "110114.149000", "110114.153000", "110114.156000", "110114.159000", "110214.055000", "110214.058000", "110214.062000", "110214.065000", "110214.068000", "110214.071000", "110214.074000", "110214.077000", "110214.080000", "110214.084000", "110214.087000", "110214.090000", "110214.093000", "110214.096000", "110214.099000", "110214.102000", "110214.105000", "110214.108000", "110214.111000", "110214.114000", "110214.118000", "110214.121000", "110214.124000", "110214.127000", "110214.130000", "110214.134000", "110214.137000", "110234.055000", "110234.058000", "110234.061000", "110234.064000", "110234.068000", "110234.071000", "110234.074000", "110234.077000", "110234.080000", "110315.943000", "110315.946000", "110315.950000", "110315.953000", "110315.964000", "110315.967000", "110315.970000", "110315.973000", "110315.981000", "110315.984000", "110315.987000", "110315.990000", "110315.993000", "110315.996000", "110316.001000", "110316.004000", "110316.007000", "110316.010000"],
      "InstanceNumber": [1, 2, 3, 4, 5, 6, 7, 8, 9, 10, 11, 12, 13, 14, 15, 16, 17, 18, 19, 20, 21, 22, 23, 24, 25, 26, 27, 28, 29, 30, 31, 32, 33, 34, 35, 36, 37, 38, 39, 40, 41, 42, 43, 44, 45, 46, 47, 48, 49, 50, 51, 52, 53, 54, 55, 56, 57, 58, 59, 60, 61, 62, 63, 64, 65, 66, 67, 68, 69, 70, 71, 72, 73, 74, 75, 76, 77, 78, 79, 80, 81, 82, 83, 84, 85, 86, 87, 88, 89, 90, 91, 92, 93, 94, 95, 96, 97, 98, 99, 100, 101, 102, 103, 104, 105, 106, 107],
      "LargestImagePixelValue": [51516, 52497, 21913, 12198, 23740, 23245, 38576, 12373, 11166, 12415, 23385, 37328, 11901, 10910, 12742, 12808, 23532, 12639, 11647, 12495, 12435, 51105, 24241, 12213, 22686, 24225, 12241, 11876, 12481, 12469, 39662, 11831, 21410, 13361, 11841, 37819, 13756, 12568, 21571, 12709, 10914, 53353, 11957, 11150, 13134, 37443, 22620, 11368, 12248, 22457, 13272, 23177, 23465, 12899, 39645, 23129, 12318, 21786, 12925, 10971, 21893, 51256, 23687, 12317, 11933, 12829, 11495, 39520, 22339, 24788, 10590, 12077, 12080, 12890, 22028, 12300, 12283, 12950, 22685, 23177, 12514, 51967, 22969, 13109, 12801, 23286, 22723, 12812, 23204, 12220, 11716, 12291, 22286, 12250, 10967, 13266, 38703, 23729, 12361, 24568, 23648, 49992, 11266, 13293, 22648, 12095, 11959],
      "SequenceName": [
 "ep_b0",
 "ep_b0",
 "ep_b1000#2",
 "ep_b2000#3",
 "ep_b1000#4",
 "ep_b1000#5",
 "ep_b300#6",
 "ep_b2000#7",
 "ep_b2000#8",
 "ep_b2000#9",
 "ep_b1000#10",
 "ep_b300#11",
 "ep_b2000#12",
 "ep_b2000#13",
 "ep_b2000#14",
 "ep_b2000#15",
 "ep_b1000#16",
 "ep_b2000#17",
 "ep_b2000#18",
 "ep_b2000#19",
 "ep_b2000#20",
 "ep_b0",
 "ep_b1000#22",
 "ep_b2000#23",
 "ep_b1000#24",
 "ep_b1000#25",
 "ep_b2000#26",
 "ep_b2000#27",
 "ep_b2000#28",
 "ep_b2000#29",
 "ep_b300#30",
 "ep_b2000#31",
 "ep_b1000#32",
 "ep_b2000#33",
 "ep_b2000#34",
 "ep_b300#35",
 "ep_b2000#36",
 "ep_b2000#37",
 "ep_b1000#38",
 "ep_b2000#39",
 "ep_b2000#40",
 "ep_b0",
 "ep_b2000#42",
 "ep_b2000#43",
 "ep_b2000#44",
 "ep_b300#45",
 "ep_b1000#46",
 "ep_b2000#47",
 "ep_b2000#48",
 "ep_b1000#49",
 "ep_b2000#50",
 "ep_b1000#51",
 "ep_b1000#52",
 "ep_b2000#53",
 "ep_b300#54",
 "ep_b1000#55",
 "ep_b2000#56",
 "ep_b1000#57",
 "ep_b2000#58",
 "ep_b2000#59",
 "ep_b1000#60",
 "ep_b0",
 "ep_b1000#62",
 "ep_b2000#63",
 "ep_b2000#64",
 "ep_b2000#65",
 "ep_b2000#66",
 "ep_b300#67",
 "ep_b1000#68",
 "ep_b1000#69",
 "ep_b2000#70",
 "ep_b2000#71",
 "ep_b2000#72",
 "ep_b2000#73",
 "ep_b1000#74",
 "ep_b2000#75",
 "ep_b2000#76",
 "ep_b2000#77",
 "ep_b1000#78",
 "ep_b1000#79",
 "ep_b2000#80",
 "ep_b0",
 "ep_b1000#82",
 "ep_b2000#83",
 "ep_b2000#84",
 "ep_b1000#85",
 "ep_b1000#86",
 "ep_b2000#87",
 "ep_b1000#88",
 "ep_b2000#89",
 "ep_b2000#90",
 "ep_b2000#91",
 "ep_b1000#92",
 "ep_b2000#93",
 "ep_b2000#94",
 "ep_b2000#95",
 "ep_b300#96",
 "ep_b1000#97",
 "ep_b2000#98",
 "ep_b1000#99",
 "ep_b1000#100",
 "ep_b0",
 "ep_b2000#102",
 "ep_b2000#103",
 "ep_b1000#104",
 "ep_b2000#105",
 "ep_b2000#106"
],
      "TriggerTime": [12835.0, 15080.0, 17322.5, 19565.0, 21807.5, 24050.0, 26295.0, 28537.5, 30780.0, 33022.5, 35265.0, 37510.0, 39752.5, 41995.0, 44237.5, 46480.0, 48725.0, 50967.5, 53210.0, 55452.5, 57695.0, 59940.0, 62182.5, 64425.0, 66667.5, 68910.0, 71155.0, 73397.5, 75640.0, 77882.5, 80125.0, 82370.0, 84612.5, 86855.0, 89097.5, 91340.0, 93585.0, 95827.5, 98070.0, 100312.5, 102555.0, 104800.0, 107042.5, 109285.0, 111527.5, 113770.0, 116015.0, 118257.5, 120500.0, 122742.5, 124985.0, 127230.0, 129472.5, 131715.0, 133957.5, 136200.0, 138445.0, 140687.5, 142930.0, 145172.5, 147415.0, 149660.0, 151902.5, 154145.0, 156387.5, 158630.0, 160875.0, 163117.5, 165360.0, 167602.5, 169845.0, 172090.0, 174332.5, 176575.0, 178817.5, 181060.0, 183305.0, 185547.5, 187790.0, 190032.5, 192275.0, 194520.0, 196762.5, 199005.0, 201247.5, 203490.0, 205735.0, 207977.5, 210220.0, 212462.5, 214705.0, 216950.0, 219192.5, 221435.0, 223677.5, 225920.0, 228165.0, 230407.5, 232650.0, 234892.5, 237135.0, 239380.0, 241622.5, 243865.0, 246107.5, 248350.0, 250595.0],
      "WindowCenter": [7816.0, 7819.0, 3742.0, 2430.0, 3767.0, 3707.0, 5793.0, 2414.0, 2383.0, 2413.0, 3724.0, 5774.0, 2372.0, 2330.0, 2431.0, 2441.0, 3750.0, 2413.0, 2421.0, 2413.0, 2387.0, 7707.0, 3752.0, 2398.0, 3737.0, 3755.0, 2411.0, 2373.0, 2370.0, 2382.0, 5773.0, 2367.0, 3691.0, 2454.0, 2379.0, 5787.0, 2421.0, 2413.0, 3671.0, 2439.0, 2337.0, 7760.0, 2400.0, 2350.0, 2423.0, 5751.0, 3715.0, 2355.0, 2401.0, 3680.0, 2453.0, 3720.0, 3719.0, 2420.0, 5771.0, 3716.0, 2417.0, 3698.0, 2387.0, 2389.0, 3701.0, 7744.0, 3760.0, 2370.0, 2417.0, 2423.0, 2376.0, 5828.0, 3689.0, 3765.0, 2361.0, 2428.0, 2418.0, 2423.0, 3667.0, 2405.0, 2407.0, 2438.0, 3692.0, 3754.0, 2431.0, 7711.0, 3699.0, 2396.0, 2407.0, 3752.0, 3729.0, 2379.0, 3699.0, 2398.0, 2406.0, 2363.0, 3684.0, 2412.0, 2389.0, 2435.0, 5807.0, 3752.0, 2430.0, 3756.0, 3735.0, 7669.0, 2332.0, 2393.0, 3727.0, 2370.0, 2398.0],
      "WindowWidth": [16930.0, 16933.0, 8523.0, 5888.0, 8587.0, 8469.0, 12589.0, 5857.0, 5787.0, 5829.0, 8510.0, 12573.0, 5768.0, 5686.0, 5874.0, 5905.0, 8547.0, 5844.0, 5850.0, 5849.0, 5801.0, 16679.0, 8558.0, 5822.0, 8521.0, 8552.0, 5841.0, 5748.0, 5762.0, 5779.0, 12553.0, 5751.0, 8472.0, 5928.0, 5771.0, 12596.0, 5862.0, 5852.0, 8409.0, 5879.0, 5691.0, 16786.0, 5828.0, 5713.0, 5865.0, 12527.0, 8504.0, 5731.0, 5801.0, 8442.0, 5925.0, 8512.0, 8483.0, 5850.0, 12560.0, 8489.0, 5857.0, 8460.0, 5804.0, 5785.0, 8445.0, 16761.0, 8562.0, 5764.0, 5838.0, 5869.0, 5792.0, 12664.0, 8439.0, 8586.0, 5731.0, 5883.0, 5847.0, 5863.0, 8427.0, 5821.0, 5835.0, 5891.0, 8457.0, 8556.0, 5893.0, 16692.0, 8467.0, 5820.0, 5831.0, 8564.0, 8496.0, 5768.0, 8464.0, 5823.0, 5830.0, 5734.0, 8438.0, 5852.0, 5783.0, 5882.0, 12625.0, 8558.0, 5884.0, 8558.0, 8527.0, 16612.0, 5672.0, 5805.0, 8500.0, 5761.0, 5821.0]
    },
    "slices": {}
  }
}