{
  "AcquisitionMatrixPE": 110,
  "AcquisitionNumber": 1,
  "AcquisitionTime": "16:28:33.172500",
  "BandwidthPerPixelPhaseEncode": 12.987,
  "BaseResolution": 110,
  "BodyPartExamined": "BRAIN",
  "ConsistencyInfo": "N4_VE11C_LATEST_20160120",
  "ConversionSoftware": "dcm2niix",
  "ConversionSoftwareVersion": "v1.0.20190902",
  "DerivedVendorReportedEchoSpacing": 0.000700001,
  "DeviceSerialNumber": "167006",
  "DiffusionScheme": "Monopolar",
  "DwellTime": 2.7e-06,
  "EchoTime": 0.0816,
  "EchoTrainLength": 83,
  "EffectiveEchoSpacing": 0.000700001,
  "FlipAngle": 78,
  "ImageComments": "Unaliased_MB3_PE3_LB_SENSE1",
  "ImageOrientationPatientDICOM": [1, 0, 0, 0, 0.999986, 0.00523596],
  "ImageType": [
    "ORIGINAL",
    "PRIMARY",
    "DIFFUSION",
    "NONE",
    "MB",
    "ND",
    "MOSAIC"
],
  "ImagingFrequency": 123.259,
  "InPlanePhaseEncodingDirectionDICOM": "COL",
  "InstitutionAddress": "Chemin_Queen-Mary_4565_Montreal_District_CA_H3W_1W5",
  "InstitutionName": "IUGM",
  "InstitutionalDepartmentName": "Department",
  "MRAcquisitionType": "2D",
  "MagneticFieldStrength": 3,
  "Manufacturer": "Siemens",
  "ManufacturersModelName": "Prisma_fit",
  "Modality": "MR",
  "MultibandAccelerationFactor": 3,
  "PartialFourier": 0.75,
  "PatientPosition": "HFS",
  "PercentPhaseFOV": 100,
  "PhaseEncodingDirection": "j-",
  "PhaseEncodingSteps": 83,
  "PhaseResolution": 1,
  "PixelBandwidth": 1685,
  "ProcedureStepDescription": "hcptrt_generic",
  "ProtocolName": "dMRI_dir98_AP_test_cmrr",
  "PulseSequenceDetails": "%CustomerSeq%_cmrr_mbep2d_diff",
  "ReceiveCoilActiveElements": "HC1-6",
  "ReceiveCoilName": "HeadNeck_64",
  "ReconMatrixPE": 110,
  "RepetitionTime": 2.334,
  "SAR": 0.0893596,
  "ScanOptions": "PFP_EXT",
  "ScanningSequence": "EP",
  "SequenceName": "ep_b5#1",
  "SequenceVariant": "SK_SS",
  "SeriesDescription": "dMRI_dir98_AP_test_cmrr",
  "SeriesNumber": 44,
  "ShimSetting": [617, -7216, -8990, -632, 22, 59, -19, -13],
  "SliceThickness": 2,
  "SliceTiming": [0, 1.2175, 0.1225, 1.34, 0.2425, 1.46, 0.365, 1.5825, 0.4875, 1.705, 0.61, 1.8275, 0.73, 1.9475, 0.8525, 2.07, 0.975, 2.1925, 1.095, 0, 1.2175, 0.1225, 1.34, 0.2425, 1.46, 0.365, 1.5825, 0.4875, 1.705, 0.61, 1.8275, 0.73, 1.9475, 0.8525, 2.07, 0.975, 2.1925, 1.095, 0, 1.2175, 0.1225, 1.34, 0.2425, 1.46, 0.365, 1.5825, 0.4875, 1.705, 0.61, 1.8275, 0.73, 1.9475, 0.8525, 2.07, 0.975, 2.1925, 1.095],
  "SoftwareVersions": "syngo_MR_E11",
  "SpacingBetweenSlices": 2,
  "StationName": "MRC35049",
  "TotalReadoutTime": 0.0763001,
  "TxRefAmp": 232.329,
  "WipMemBlock": "7d977731-f337-4980-944f-7fca75c56e13||Sequence: R016 ve11c/master r/e634e98; Dec 19 2017 11:11:25 by eja",
  "dcmmeta_affine": [
    [-2.0, 0.0, 0.0, 109.49686431884766],
    [0.0, 1.9999725818634033, 0.010471927002072334, -80.302490234375],
    [0.0, -0.010471927002072334, 1.9999725818634033, -38.123291015625],
    [0.0, 0.0, 0.0, 1.0]
],
  "dcmmeta_reorient_transform": [
    [0.0, -1.0, 0.0, 109.0],
    [1.0, 0.0, 0.0, 0.0],
    [0.0, 0.0, 1.0, 0.0],
    [0.0, 0.0, 0.0, 1.0]
],
  "dcmmeta_shape": [110, 110, 57, 99],
  "dcmmeta_slice_dim": 2,
  "dcmmeta_version": 0.6,
  "global": {
    "const": {
      "AcquisitionMatrix": [110, 0, 0, 110],
      "AngioFlag": "N",
      "BitsAllocated": 16,
      "BitsStored": 16,
      "BodyPartExamined": "BRAIN",
      "CardiacNumberOfImages": 1,
      "Columns": 880,
      "EchoNumbers": 1,
      "EchoTime": 81.6,
      "EchoTrainLength": 83,
      "FlipAngle": 78.0,
      "HighBit": 15,
      "ImageOrientationPatient": [1.0, 0.0, 0.0, 0.0, 0.99998629224893, 0.00523596354377],
      "ImagePositionPatient": [-879.49686384201, -907.68396684214, -43.296422027403],
      "ImageType": [
        "ORIGINAL",
        "PRIMARY",
        "DIFFUSION",
        "NONE",
        "MB",
        "ND",
        "MOSAIC"
],
      "ImagedNucleus": "1H",
      "ImagingFrequency": 123.259406,
      "InPlanePhaseEncodingDirection": "COL",
      "MRAcquisitionType": "2D",
      "MagneticFieldStrength": 3.0,
      "Manufacturer": "SIEMENS",
      "ManufacturerModelName": "Prisma_fit",
      "Modality": "MR",
      "NominalInterval": 0,
      "NumberOfAverages": 1.0,
      "NumberOfPhaseEncodingSteps": 83,
      "PercentPhaseFieldOfView": 100.0,
      "PercentSampling": 100.0,
      "PerformedProcedureStepStartTime": "143549.661000",
      "PhotometricInterpretation": "MONOCHROME2",
      "PixelBandwidth": 1685.0,
      "PixelRepresentation": 0,
      "PixelSpacing": [2.0, 2.0],
      "ProtocolName": "dMRI_dir98_AP_test_cmrr",
      "RepetitionTime": 2334.0,
      "Rows": 880,
      "SAR": 0.08935959335353,
      "SamplesPerPixel": 1,
      "ScanOptions": [
        "PFP",
        "EXT"
],
      "ScanningSequence": "EP",
      "SequenceVariant": [
        "SK",
        "SS"
],
      "SeriesDescription": "dMRI_dir98_AP_test_cmrr",
      "SeriesNumber": 44,
      "SeriesTime": "162926.956000",
      "SliceLocation": -38.543228371179,
      "SliceThickness": 2.0,
      "SmallestImagePixelValue": 0,
      "SoftwareVersions": "syngo MR E11",
      "SpacingBetweenSlices": 2.0000000314036,
      "SpecificCharacterSet": "ISO_IR 100",
      "StudyID": "1",
      "StudyTime": "143549.553000",
      "TransmitCoilName": "Body",
      "VariableFlipAngleFlag": "N",
      "WindowCenterWidthExplanation": "Algo1",
      "dBdt": 0.0},
    "slices": {}
  },
  "time": {
    "samples": {
      "AcquisitionNumber": [1, 2, 3, 4, 5, 6, 7, 8, 9, 10, 11, 12, 13, 14, 15, 16, 17, 18, 19, 20, 21, 22, 23, 24, 25, 26, 27, 28, 29, 30, 31, 32, 33, 34, 35, 36, 37, 38, 39, 40, 41, 42, 43, 44, 45, 46, 47, 48, 49, 50, 51, 52, 53, 54, 55, 56, 57, 58, 59, 60, 61, 62, 63, 64, 65, 66, 67, 68, 69, 70, 71, 72, 73, 74, 75, 76, 77, 78, 79, 80, 81, 82, 83, 84, 85, 86, 87, 88, 89, 90, 91, 92, 93, 94, 95, 96, 97, 98, 99],
      "AcquisitionTime": ["162833.172500", "162835.507500", "162837.840000", "162840.175000", "162842.507500", "162844.842500", "162847.177500", "162849.510000", "162851.845000", "162854.177500", "162856.512500", "162858.847500", "162901.180000", "162903.515000", "162905.847500", "162908.182500", "162910.517500", "162912.850000", "162915.185000", "162917.517500", "162919.852500", "162922.187500", "162924.520000", "162926.855000", "162929.187500", "162931.522500", "162933.857500", "162936.190000", "162938.525000", "162940.857500", "162943.192500", "162945.527500", "162947.860000", "162950.195000", "162952.527500", "162954.862500", "162957.197500", "162959.530000", "163001.865000", "163004.197500", "163006.532500", "163008.867500", "163011.200000", "163013.535000", "163015.867500", "163018.202500", "163020.537500", "163022.870000", "163025.205000", "163027.537500", "163029.872500", "163032.207500", "163034.540000", "163036.875000", "163039.207500", "163041.542500", "163043.877500", "163046.210000", "163048.545000", "163050.877500", "163053.212500", "163055.547500", "163057.880000", "163100.215000", "163102.547500", "163104.882500", "163107.217500", "163109.550000", "163111.885000", "163114.217500", "163116.552500", "163118.887500", "163121.220000", "163123.555000", "163125.887500", "163128.222500", "163130.557500", "163132.890000", "163135.225000", "163137.557500", "163139.892500", "163142.227500", "163144.560000", "163146.895000", "163149.227500", "163151.562500", "163153.897500", "163156.230000", "163158.565000", "163200.897500", "163203.232500", "163205.567500", "163207.900000", "163210.235000", "163212.567500", "163214.902500", "163217.237500", "163219.570000", "163221.905000"],
      "ContentTime": ["162926.959000", "162926.969000", "162926.976000", "162926.979000", "162926.982000", "162926.985000", "162926.988000", "162926.991000", "162926.994000", "162926.997000", "162927.002000", "162927.005000", "162927.008000", "162927.011000", "162927.014000", "162927.017000", "162927.021000", "162927.024000", "162927.027000", "162927.030000", "162927.033000", "162927.036000", "163026.927000", "163026.930000", "163026.934000", "163026.937000", "163026.940000", "163026.943000", "163026.946000", "163026.949000", "163026.952000", "163026.955000", "163026.958000", "163026.962000", "163026.965000", "163026.974000", "163026.977000", "163026.980000", "163026.983000", "163026.986000", "163026.989000", "163026.992000", "163026.996000", "163027.000000", "163027.003000", "163027.006000", "163027.009000", "163027.012000", "163126.929000", "163126.932000", "163126.936000", "163126.939000", "163126.942000", "163126.946000", "163126.950000", "163126.954000", "163126.957000", "163126.960000", "163126.964000", "163126.968000", "163126.971000", "163126.974000", "163126.977000", "163126.981000", "163126.984000", "163126.988000", "163126.991000", "163126.995000", "163126.999000", "163127.002000", "163127.005000", "163127.009000", "163127.012000", "163127.016000", "163146.928000", "163146.931000", "163146.935000", "163146.938000", "163146.941000", "163146.944000", "163146.947000", "163146.950000", "163226.823000", "163226.827000", "163226.830000", "163226.833000", "163226.836000", "163226.840000", "163226.843000", "163226.846000", "163226.851000", "163226.854000", "163226.857000", "163226.860000", "163226.864000", "163226.867000", "163226.870000", "163226.874000", "163226.877000"],
      "InstanceCreationTime": ["162926.959000", "162926.969000", "162926.976000", "162926.979000", "162926.982000", "162926.985000", "162926.988000", "162926.991000", "162926.994000", "162926.997000", "162927.002000", "162927.005000", "162927.008000", "162927.011000", "162927.014000", "162927.017000", "162927.021000", "162927.024000", "162927.027000", "162927.030000", "162927.033000", "162927.036000", "163026.927000", "163026.930000", "163026.934000", "163026.937000", "163026.940000", "163026.943000", "163026.946000", "163026.949000", "163026.952000", "163026.955000", "163026.958000", "163026.962000", "163026.965000", "163026.974000", "163026.977000", "163026.980000", "163026.983000", "163026.986000", "163026.989000", "163026.992000", "163026.996000", "163027.000000", "163027.003000", "163027.006000", "163027.009000", "163027.012000", "163126.929000", "163126.932000", "163126.936000", "163126.939000", "163126.942000", "163126.946000", "163126.950000", "163126.954000", "163126.957000", "163126.960000", "163126.964000", "163126.968000", "163126.971000", "163126.974000", "163126.977000", "163126.981000", "163126.984000", "163126.988000", "163126.991000", "163126.995000", "163126.999000", "163127.002000", "163127.005000", "163127.009000", "163127.012000", "163127.016000", "163146.928000", "163146.931000", "163146.935000", "163146.938000", "163146.941000", "163146.944000", "163146.947000", "163146.950000", "163226.823000", "163226.827000", "163226.830000", "163226.833000", "163226.836000", "163226.840000", "163226.843000", "163226.846000", "163226.851000", "163226.854000", "163226.857000", "163226.860000", "163226.864000", "163226.867000", "163226.870000", "163226.874000", "163226.877000"],
      "InstanceNumber": [1, 2, 3, 4, 5, 6, 7, 8, 9, 10, 11, 12, 13, 14, 15, 16, 17, 18, 19, 20, 21, 22, 23, 24, 25, 26, 27, 28, 29, 30, 31, 32, 33, 34, 35, 36, 37, 38, 39, 40, 41, 42, 43, 44, 45, 46, 47, 48, 49, 50, 51, 52, 53, 54, 55, 56, 57, 58, 59, 60, 61, 62, 63, 64, 65, 66, 67, 68, 69, 70, 71, 72, 73, 74, 75, 76, 77, 78, 79, 80, 81, 82, 83, 84, 85, 86, 87, 88, 89, 90, 91, 92, 93, 94, 95, 96, 97, 98, 99],
      "LargestImagePixelValue": [65535, 65535, 3613, 687, 4478, 692, 5355, 771, 5700, 789, 3785, 693, 4177, 776, 5587, 708, 5615, 65535, 749, 4173, 744, 4332, 704, 5262, 712, 4158, 720, 4117, 737, 4730, 762, 4978, 721, 65535, 4388, 707, 4517, 761, 4629, 739, 4119, 880, 5217, 793, 5013, 750, 4991, 740, 4171, 65535, 713, 4239, 774, 4492, 770, 5000, 755, 3860, 757, 5386, 728, 5042, 801, 5127, 752, 65535, 4324, 726, 4764, 811, 4410, 726, 5446, 900, 4791, 828, 4557, 768, 4345, 831, 5029, 65535, 729, 5544, 750, 4454, 790, 5285, 748, 4561, 713, 5457, 774, 4890, 752, 5685, 710, 5058, 834],
      "SequenceName": [
 "ep_b5#1",
 "ep_b5#1",
 "ep_b1490#2",
 "ep_b2995#3",
 "ep_b1495#4",
 "ep_b3005#5",
 "ep_b1500#6",
 "ep_b2990#7",
 "ep_b1495#8",
 "ep_b3000#9",
 "ep_b1490#10",
 "ep_b2995#11",
 "ep_b1490#12",
 "ep_b2990#13",
 "ep_b1495#14",
 "ep_b2985#15",
 "ep_b1500#16",
 "ep_b5#17",
 "ep_b3005#18",
 "ep_b1490#19",
 "ep_b2995#20",
 "ep_b1500#21",
 "ep_b3000#22",
 "ep_b1495#23",
 "ep_b3005#24",
 "ep_b1495#25",
 "ep_b2985#26",
 "ep_b1505#27",
 "ep_b2995#28",
 "ep_b1500#29",
 "ep_b3000#30",
 "ep_b1490#31",
 "ep_b3005#32",
 "ep_b5#33",
 "ep_b1505#34",
 "ep_b2995#35",
 "ep_b1495#36",
 "ep_b2985#37",
 "ep_b1500#38",
 "ep_b2990#39",
 "ep_b1505#40",
 "ep_b3000#41",
 "ep_b1500#42",
 "ep_b2990#43",
 "ep_b1495#44",
 "ep_b2995#45",
 "ep_b1495#46",
 "ep_b3000#47",
 "ep_b1490#48",
 "ep_b5#49",
 "ep_b3005#50",
 "ep_b1500#51",
 "ep_b2990#52",
 "ep_b1505#53",
 "ep_b2995#54",
 "ep_b1495#55",
 "ep_b2985#56",
 "ep_b1490#57",
 "ep_b2995#58",
 "ep_b1500#59",
 "ep_b3000#60",
 "ep_b1500#61",
 "ep_b2985#62",
 "ep_b1495#63",
 "ep_b2990#64",
 "ep_b5#65",
 "ep_b1505#66",
 "ep_b3005#67",
 "ep_b1495#68",
 "ep_b2995#69",
 "ep_b1505#70",
 "ep_b3005#71",
 "ep_b1495#72",
 "ep_b3000#73",
 "ep_b1495#74",
 "ep_b2995#75",
 "ep_b1495#76",
 "ep_b3000#77",
 "ep_b1505#78",
 "ep_b2995#79",
 "ep_b1495#80",
 "ep_b5#81",
 "ep_b2990#82",
 "ep_b1500#83",
 "ep_b2990#84",
 "ep_b1490#85",
 "ep_b2995#86",
 "ep_b1495#87",
 "ep_b2995#88",
 "ep_b1490#89",
 "ep_b2985#90",
 "ep_b1500#91",
 "ep_b3000#92",
 "ep_b1490#93",
 "ep_b3000#94",
 "ep_b1495#95",
 "ep_b2990#96",
 "ep_b1500#97",
 "ep_b3000#98"
],
      "TriggerTime": [13297.5, 15630.0, 17965.0, 20300.0, 22632.5, 24967.5, 27300.0, 29635.0, 31970.0, 34302.5, 36637.5, 38970.0, 41305.0, 43640.0, 45972.5, 48307.5, 50640.0, 52975.0, 55310.0, 57642.5, 59977.5, 62310.0, 64645.0, 66980.0, 69312.5, 71647.5, 73980.0, 76315.0, 78650.0, 80982.5, 83317.5, 85650.0, 87985.0, 90320.0, 92652.5, 94987.5, 97320.0, 99655.0, 101990.0, 104322.5, 106657.5, 108990.0, 111325.0, 113660.0, 115992.5, 118327.5, 120660.0, 122995.0, 125330.0, 127662.5, 129997.5, 132330.0, 134665.0, 137000.0, 139332.5, 141667.5, 144000.0, 146335.0, 148670.0, 151002.5, 153337.5, 155670.0, 158005.0, 160340.0, 162672.5, 165007.5, 167340.0, 169675.0, 172010.0, 174342.5, 176677.5, 179010.0, 181345.0, 183680.0, 186012.5, 188347.5, 190680.0, 193015.0, 195350.0, 197682.5, 200017.5, 202350.0, 204685.0, 207020.0, 209352.5, 211687.5, 214020.0, 216355.0, 218690.0, 221022.5, 223357.5, 225690.0, 228025.0, 230360.0, 232692.5, 235027.5, 237360.0, 239695.0, 242030.0],
      "WindowCenter": [12938.0, 12933.0, 1405.0, 410.0, 1423.0, 410.0, 1408.0, 411.0, 1411.0, 411.0, 1404.0, 411.0, 1430.0, 411.0, 1426.0, 411.0, 1408.0, 12927.0, 411.0, 1416.0, 411.0, 1388.0, 411.0, 1409.0, 411.0, 1405.0, 411.0, 1406.0, 411.0, 1401.0, 411.0, 1427.0, 411.0, 12924.0, 1405.0, 410.0, 1408.0, 410.0, 1387.0, 411.0, 1388.0, 411.0, 1390.0, 411.0, 1413.0, 410.0, 1405.0, 410.0, 1425.0, 12921.0, 410.0, 1386.0, 410.0, 1390.0, 411.0, 1405.0, 411.0, 1416.0, 411.0, 1410.0, 410.0, 1406.0, 411.0, 1413.0, 410.0, 12937.0, 1404.0, 411.0, 1406.0, 411.0, 1391.0, 411.0, 1429.0, 411.0, 1407.0, 411.0, 1416.0, 410.0, 1401.0, 411.0, 1418.0, 12933.0, 411.0, 1410.0, 410.0, 1431.0, 411.0, 1408.0, 411.0, 1421.0, 411.0, 1409.0, 411.0, 1434.0, 410.0, 1414.0, 411.0, 1423.0, 411.0],
      "WindowWidth": [30464.0, 30455.0, 3647.0, 1062.0, 3701.0, 1063.0, 3666.0, 1064.0, 3678.0, 1064.0, 3643.0, 1064.0, 3724.0, 1065.0, 3711.0, 1065.0, 3667.0, 30430.0, 1064.0, 3693.0, 1064.0, 3609.0, 1063.0, 3669.0, 1064.0, 3646.0, 1063.0, 3654.0, 1063.0, 3639.0, 1063.0, 3716.0, 1064.0, 30438.0, 3653.0, 1063.0, 3662.0, 1063.0, 3608.0, 1064.0, 3610.0, 1063.0, 3620.0, 1063.0, 3687.0, 1063.0, 3652.0, 1063.0, 3706.0, 30456.0, 1063.0, 3603.0, 1063.0, 3616.0, 1064.0, 3653.0, 1064.0, 3695.0, 1064.0, 3680.0, 1063.0, 3656.0, 1064.0, 3687.0, 1063.0, 30486.0, 3647.0, 1063.0, 3656.0, 1063.0, 3623.0, 1063.0, 3723.0, 1063.0, 3661.0, 1064.0, 3697.0, 1063.0, 3639.0, 1064.0, 3675.0, 30490.0, 1064.0, 3678.0, 1063.0, 3735.0, 1064.0, 3666.0, 1064.0, 3690.0, 1064.0, 3670.0, 1064.0, 3744.0, 1063.0, 3692.0, 1064.0, 3699.0, 1064.0]
    },
    "slices": {}
  }
}