{
  "AcquisitionMatrixPE": 110,
  "AcquisitionNumber": 66,
  "AcquisitionTime": "14:58:11.242500",
  "BandwidthPerPixelPhaseEncode": 12.987,
  "BaseResolution": 110,
  "BodyPartExamined": "BRAIN",
  "ConsistencyInfo": "N4_VE11C_LATEST_20160120",
  "ConversionSoftware": "dcm2niix",
  "ConversionSoftwareVersion": "v1.0.20190902",
  "DerivedVendorReportedEchoSpacing": 0.000700001,
  "DeviceSerialNumber": "167006",
  "DiffusionScheme": "Monopolar",
  "DwellTime": 2.7e-06,
  "EchoTime": 0.0816,
  "EchoTrainLength": 83,
  "EffectiveEchoSpacing": 0.000700001,
  "FlipAngle": 78,
  "ImageComments": "Unaliased_MB3_PE3_LB_SENSE1",
  "ImageOrientationPatientDICOM": [1, 0, 0, 0, 0.951057, -0.309017],
  "ImageType": [
    "ORIGINAL",
    "PRIMARY",
    "DIFFUSION",
    "NONE",
    "MB",
    "ND"
],
  "ImagingFrequency": 123.259,
  "InPlanePhaseEncodingDirectionDICOM": "COL",
  "InstitutionAddress": "Chemin_Queen-Mary_4565_Montreal_District_CA_H3W_1W5",
  "InstitutionName": "IUGM",
  "InstitutionalDepartmentName": "Department",
  "MRAcquisitionType": "2D",
  "MagneticFieldStrength": 3,
  "Manufacturer": "Siemens",
  "ManufacturersModelName": "Prisma_fit",
  "Modality": "MR",
  "MultibandAccelerationFactor": 3,
  "PartialFourier": 0.75,
  "PatientPosition": "HFS",
  "PercentPhaseFOV": 100,
  "PhaseEncodingDirection": "j-",
  "PhaseEncodingSteps": 83,
  "PhaseResolution": 1,
  "PixelBandwidth": 1685,
  "ProcedureStepDescription": "hcptrt_generic",
  "ProtocolName": "dMRI_dir98_AP_test_cmrr",
  "PulseSequenceDetails": "%CustomerSeq%_cmrr_mbep2d_diff",
  "ReceiveCoilActiveElements": "HC1-6",
  "ReceiveCoilName": "HeadNeck_64",
  "ReconMatrixPE": 110,
  "RepetitionTime": 2.334,
  "SAR": 0.106643,
  "ScanOptions": "PFP_EXT",
  "ScanningSequence": "EP",
  "SequenceName": "ep_b5#65",
  "SequenceVariant": "SK_SS",
  "SeriesDescription": "dMRI_dir98_AP_test_cmrr_split_1",
  "SeriesNumber": 22,
  "ShimSetting": [627, -7263, -8843, 601, 25, -252, -72, -27],
  "SliceThickness": 2,
  "SliceTiming": [0, 1.2175, 0.12, 1.3375, 0.2425, 1.46, 0.365, 1.5825, 0.485, 1.705, 0.6075, 1.825, 0.73, 1.9475, 0.8525, 2.07, 0.9725, 2.19, 1.095, 0, 1.2175, 0.12, 1.3375, 0.2425, 1.46, 0.365, 1.5825, 0.485, 1.705, 0.6075, 1.825, 0.73, 1.9475, 0.8525, 2.07, 0.9725, 2.19, 1.095, 0, 1.2175, 0.12, 1.3375, 0.2425, 1.46, 0.365, 1.5825, 0.485, 1.705, 0.6075, 1.825, 0.73, 1.9475, 0.8525, 2.07, 0.9725, 2.19, 1.095],
  "SoftwareVersions": "syngo_MR_E11",
  "SpacingBetweenSlices": 2,
  "StationName": "MRC35049",
  "TotalReadoutTime": 0.0763001,
  "TxRefAmp": 217.585,
  "WipMemBlock": "0f143d07-134c-4504-bb7c-0e9981917304||Sequence: R016 ve11c/master r/e634e98; Dec 19 2017 11:11:25 by eja",
  "dcmmeta_affine": [
    [-2.0, 0.0, 0.0, 109.49686431884766],
    [0.0, 1.9021130800247192, -0.618034303188324, -69.0772476196289],
    [0.0, 0.6180339455604553, 1.9021128416061401, -64.19330596923828],
    [0.0, 0.0, 0.0, 1.0]
],
  "dcmmeta_reorient_transform": [
    [0.0, -1.0, 0.0, 109.0],
    [1.0, 0.0, 0.0, 0.0],
    [0.0, 0.0, 1.0, 0.0],
    [0.0, 0.0, 0.0, 1.0]
],
  "dcmmeta_shape": [110, 110, 57],
  "dcmmeta_slice_dim": 2,
  "dcmmeta_version": 0.6,
  "global": {
    "const": {
      "AcquisitionMatrix": [110, 0, 0, 110],
      "AcquisitionNumber": 66,
      "AcquisitionTime": "145811.242500",
      "AngioFlag": "N",
      "BitsAllocated": 16,
      "BitsStored": 16,
      "BodyPartExamined": "BRAIN",
      "CardiacNumberOfImages": 1,
      "Columns": 110,
      "EchoNumbers": 1,
      "EchoTime": 81.6,
      "EchoTrainLength": 83,
      "FlipAngle": 78.0,
      "HighBit": 15,
      "ImageOrientationPatient": [1.0, 0.0, 0.0, 0.0, 0.95105651966806, -0.3090169839942],
      "ImageType": [
        "ORIGINAL",
        "PRIMARY",
        "DIFFUSION",
        "NONE",
        "MB",
        "ND"
],
      "ImagedNucleus": "1H",
      "ImagingFrequency": 123.259402,
      "InPlanePhaseEncodingDirection": "COL",
      "InstanceCreationTime": "145831.735000",
      "MRAcquisitionType": "2D",
      "MagneticFieldStrength": 3.0,
      "Manufacturer": "SIEMENS",
      "ManufacturerModelName": "Prisma_fit",
      "Modality": "MR",
      "NominalInterval": 0,
      "NumberOfAverages": 1.0,
      "NumberOfPhaseEncodingSteps": 83,
      "PercentPhaseFieldOfView": 100.0,
      "PercentSampling": 100.0,
      "PerformedProcedureStepStartTime": "143549.661000",
      "PhotometricInterpretation": "MONOCHROME2",
      "PixelBandwidth": 1685.0,
      "PixelRepresentation": 0,
      "PixelSpacing": [2.0, 2.0],
      "ProtocolName": "dMRI_dir98_AP_test_cmrr",
      "RepetitionTime": 2334.0,
      "Rows": 110,
      "SAR": 0.10664284366511,
      "SamplesPerPixel": 1,
      "ScanOptions": [
        "PFP",
        "EXT"
],
      "ScanningSequence": "EP",
      "SequenceName": "ep_b5#65",
      "SequenceVariant": [
        "SK",
        "SS"
],
      "SeriesDescription": "dMRI_dir98_AP_test_cmrr_split_1",
      "SeriesNumber": 22,
      "SeriesTime": "151957.794000",
      "SliceThickness": 2.0,
      "SoftwareVersions": "syngo MR E11",
      "SpacingBetweenSlices": 1.9999999682167,
      "SpecificCharacterSet": "ISO_IR 100",
      "StudyID": "1",
      "StudyTime": "143549.553000",
      "TransmitCoilName": "Body",
      "TriggerTime": 165005.0,
      "VariableFlipAngleFlag": "N",
      "WindowCenter": 1750.0,
      "WindowCenterWidthExplanation": "WINDOW1",
      "WindowWidth": 9106.0,
      "dBdt": 0.0},
    "slices": {
      "ContentTime": ["151957.973000", "151958.058000", "151958.138000", "151958.223000", "151958.320000", "151958.400000", "151958.497000", "151958.577000", "151958.657000", "151958.731000", "151958.811000", "151958.885000", "151958.971000", "151959.051000", "151959.142000", "151959.222000", "151959.313000", "151959.387000", "151959.467000", "151959.541000", "151959.621000", "151959.695000", "151959.775000", "151959.849000", "151959.935000", "152000.009000", "152000.094000", "152000.174000", "152000.260000", "152000.334000", "152000.414000", "152000.488000", "152000.568000", "152000.642000", "152000.722000", "152000.796000", "152000.876000", "152000.956000", "152001.041000", "152001.121000", "152001.207000", "152001.292000", "152001.384000", "152001.458000", "152001.537000", "152001.612000", "152001.692000", "152001.760000", "152001.834000", "152001.903000", "152001.982000", "152002.051000", "152002.125000", "152002.199000", "152002.268000", "152002.330000", "152002.399000"],
      "CsaImage.ICE_Dims": [
        "X_1_1_1_66_1_1_1_1_1_1_1_250",
        "X_1_1_1_66_1_1_2_1_1_2_1_250",
        "X_1_1_1_66_1_1_3_1_1_3_1_250",
        "X_1_1_1_66_1_1_4_1_1_4_1_250",
        "X_1_1_1_66_1_1_5_1_1_5_1_250",
        "X_1_1_1_66_1_1_6_1_1_6_1_250",
        "X_1_1_1_66_1_1_7_1_1_7_1_250",
        "X_1_1_1_66_1_1_8_1_1_8_1_250",
        "X_1_1_1_66_1_1_9_1_1_9_1_250",
        "X_1_1_1_66_1_1_10_1_10_1_1_250",
        "X_1_1_1_66_1_1_11_1_11_1_1_250",
        "X_1_1_1_66_1_1_12_1_12_1_1_250",
        "X_1_1_1_66_1_1_13_1_13_1_1_250",
        "X_1_1_1_66_1_1_14_1_14_1_1_250",
        "X_1_1_1_66_1_1_15_1_15_1_1_250",
        "X_1_1_1_66_1_1_16_1_16_1_1_250",
        "X_1_1_1_66_1_1_17_1_17_1_1_250",
        "X_1_1_1_66_1_1_18_1_18_1_1_250",
        "X_1_1_1_66_1_1_19_1_19_1_1_250",
        "X_1_1_1_66_1_1_20_1_20_1_1_250",
        "X_1_1_1_66_1_1_21_1_21_1_1_250",
        "X_1_1_1_66_1_1_22_1_22_1_1_250",
        "X_1_1_1_66_1_1_23_1_23_1_1_250",
        "X_1_1_1_66_1_1_24_1_24_1_1_250",
        "X_1_1_1_66_1_1_25_1_25_1_1_250",
        "X_1_1_1_66_1_1_26_1_26_1_1_250",
        "X_1_1_1_66_1_1_27_1_27_1_1_250",
        "X_1_1_1_66_1_1_28_1_28_1_1_250",
        "X_1_1_1_66_1_1_29_1_29_1_1_250",
        "X_1_1_1_66_1_1_30_1_30_1_1_250",
        "X_1_1_1_66_1_1_31_1_31_1_1_250",
        "X_1_1_1_66_1_1_32_1_32_1_1_250",
        "X_1_1_1_66_1_1_33_1_33_1_1_250",
        "X_1_1_1_66_1_1_34_1_34_1_1_250",
        "X_1_1_1_66_1_1_35_1_35_1_1_250",
        "X_1_1_1_66_1_1_36_1_36_1_1_250",
        "X_1_1_1_66_1_1_37_1_37_1_1_250",
        "X_1_1_1_66_1_1_38_1_38_1_1_250",
        "X_1_1_1_66_1_1_39_1_39_1_1_250",
        "X_1_1_1_66_1_1_40_1_40_1_1_250",
        "X_1_1_1_66_1_1_41_1_41_1_1_250",
        "X_1_1_1_66_1_1_42_1_42_1_1_250",
        "X_1_1_1_66_1_1_43_1_43_1_1_250",
        "X_1_1_1_66_1_1_44_1_44_1_1_250",
        "X_1_1_1_66_1_1_45_1_45_1_1_250",
        "X_1_1_1_66_1_1_46_1_46_1_1_250",
        "X_1_1_1_66_1_1_47_1_47_1_1_250",
        "X_1_1_1_66_1_1_48_1_48_1_1_250",
        "X_1_1_1_66_1_1_49_1_49_1_1_250",
        "X_1_1_1_66_1_1_50_1_50_1_1_250",
        "X_1_1_1_66_1_1_51_1_51_1_1_250",
        "X_1_1_1_66_1_1_52_1_52_1_1_250",
        "X_1_1_1_66_1_1_53_1_53_1_1_250",
        "X_1_1_1_66_1_1_54_1_54_1_1_250",
        "X_1_1_1_66_1_1_55_1_55_1_1_250",
        "X_1_1_1_66_1_1_56_1_56_1_1_250",
        "X_1_1_1_66_1_1_57_1_57_1_1_250"
],
      "CsaImage.SlicePosition_PCS": [
        [-109.49686384, -138.25307706, 3.17239307],
        [-109.49686384, -137.63504273, 5.07450595],
        [-109.49686384, -137.0170084, 6.97661884],
        [-109.49686384, -136.39897407, 8.87873173],
        [-109.49686384, -135.78093974, 10.78084462],
        [-109.49686384, -135.16290541, 12.68295751],
        [-109.49686384, -134.54487108, 14.5850704],
        [-109.49686384, -133.92683675, 16.48718328],
        [-109.49686384, -133.30880242, 18.38929617],
        [-109.49686384, -132.69076809, 20.29140906],
        [-109.49686384, -132.07273376, 22.19352195],
        [-109.49686384, -131.45469943, 24.09563484],
        [-109.49686384, -130.8366651, 25.99774773],
        [-109.49686384, -130.21863077, 27.89986061],
        [-109.49686384, -129.60059644, 29.8019735],
        [-109.49686384, -128.98256211, 31.70408639],
        [-109.49686384, -128.36452778, 33.60619928],
        [-109.49686384, -127.74649345, 35.50831217],
        [-109.49686384, -127.12845912, 37.41042506],
        [-109.49686384, -126.51042479, 39.31253794],
        [-109.49686384, -125.89239046, 41.21465083],
        [-109.49686384, -125.27435613, 43.11676372],
        [-109.49686384, -124.6563218, 45.01887661],
        [-109.49686384, -124.03828747, 46.9209895],
        [-109.49686384, -123.42025314, 48.82310239],
        [-109.49686384, -122.80221881, 50.72521527],
        [-109.49686384, -122.18418448, 52.62732816],
        [-109.49686384, -121.56615015, 54.52944105],
        [-109.49686384, -120.94811582, 56.43155394],
        [-109.49686384, -120.3300815, 58.33366683],
        [-109.49686384, -119.71204717, 60.23577972],
        [-109.49686384, -119.09401284, 62.13789261],
        [-109.49686384, -118.47597851, 64.04000549],
        [-109.49686384, -117.85794418, 65.94211838],
        [-109.49686384, -117.23990985, 67.84423127],
        [-109.49686384, -116.62187552, 69.74634416],
        [-109.49686384, -116.00384119, 71.64845705],
        [-109.49686384, -115.38580686, 73.55056994],
        [-109.49686384, -114.76777253, 75.45268282],
        [-109.49686384, -114.1497382, 77.35479571],
        [-109.49686384, -113.53170387, 79.2569086],
        [-109.49686384, -112.91366954, 81.15902149],
        [-109.49686384, -112.29563521, 83.06113438],
        [-109.49686384, -111.67760088, 84.96324727],
        [-109.49686384, -111.05956655, 86.86536015],
        [-109.49686384, -110.44153222, 88.76747304],
        [-109.49686384, -109.82349789, 90.66958593],
        [-109.49686384, -109.20546356, 92.57169882],
        [-109.49686384, -108.58742923, 94.47381171],
        [-109.49686384, -107.9693949, 96.3759246],
        [-109.49686384, -107.35136057, 98.27803748],
        [-109.49686384, -106.73332624, 100.18015037],
        [-109.49686384, -106.11529191, 102.08226326],
        [-109.49686384, -105.49725758, 103.98437615],
        [-109.49686384, -104.87922325, 105.88648904],
        [-109.49686384, -104.26118892, 107.78860193],
        [-109.49686384, -103.64315459, 109.69071481]
],
      "ImagePositionPatient": [
        [-109.49686384201, -138.25307705729, 3.172393065414],
        [-109.49686384201, -137.63504272756, 5.0745059537953],
        [-109.49686384201, -137.01700839783, 6.9766188421766],
        [-109.49686384201, -136.39897406811, 8.8787317305579],
        [-109.49686384201, -135.78093973838, 10.780844618939],
        [-109.49686384201, -135.16290540865, 12.682957507321],
        [-109.49686384201, -134.54487107893, 14.585070395702],
        [-109.49686384201, -133.9268367492, 16.487183284083],
        [-109.49686384201, -133.30880241947, 18.389296172464],
        [-109.49686384201, -132.69076808975, 20.291409060846],
        [-109.49686384201, -132.07273376002, 22.193521949227],
        [-109.49686384201, -131.45469943029, 24.095634837608],
        [-109.49686384201, -130.83666510057, 25.99774772599],
        [-109.49686384201, -130.21863077084, 27.899860614371],
        [-109.49686384201, -129.60059644111, 29.801973502752],
        [-109.49686384201, -128.98256211139, 31.704086391134],
        [-109.49686384201, -128.36452778166, 33.606199279515],
        [-109.49686384201, -127.74649345194, 35.508312167896],
        [-109.49686384201, -127.12845912221, 37.410425056278],
        [-109.49686384201, -126.51042479248, 39.312537944659],
        [-109.49686384201, -125.89239046276, 41.21465083304],
        [-109.49686384201, -125.27435613303, 43.116763721422],
        [-109.49686384201, -124.6563218033, 45.018876609803],
        [-109.49686384201, -124.03828747358, 46.920989498184],
        [-109.49686384201, -123.42025314385, 48.823102386565],
        [-109.49686384201, -122.80221881412, 50.725215274947],
        [-109.49686384201, -122.1841844844, 52.627328163328],
        [-109.49686384201, -121.56615015467, 54.529441051709],
        [-109.49686384201, -120.94811582494, 56.431553940091],
        [-109.49686384201, -120.33008149522, 58.333666828472],
        [-109.49686384201, -119.71204716549, 60.235779716853],
        [-109.49686384201, -119.09401283577, 62.137892605235],
        [-109.49686384201, -118.47597850604, 64.040005493616],
        [-109.49686384201, -117.85794417631, 65.942118381997],
        [-109.49686384201, -117.23990984659, 67.844231270379],
        [-109.49686384201, -116.62187551686, 69.74634415876],
        [-109.49686384201, -116.00384118713, 71.648457047141],
        [-109.49686384201, -115.38580685741, 73.550569935523],
        [-109.49686384201, -114.76777252768, 75.452682823904],
        [-109.49686384201, -114.14973819795, 77.354795712285],
        [-109.49686384201, -113.53170386823, 79.256908600666],
        [-109.49686384201, -112.9136695385, 81.159021489048],
        [-109.49686384201, -112.29563520877, 83.061134377429],
        [-109.49686384201, -111.67760087905, 84.96324726581],
        [-109.49686384201, -111.05956654932, 86.865360154192],
        [-109.49686384201, -110.44153221959, 88.767473042573],
        [-109.49686384201, -109.82349788987, 90.669585930954],
        [-109.49686384201, -109.20546356014, 92.571698819336],
        [-109.49686384201, -108.58742923042, 94.473811707717],
        [-109.49686384201, -107.96939490069, 96.375924596098],
        [-109.49686384201, -107.35136057096, 98.27803748448],
        [-109.49686384201, -106.73332624124, 100.18015037286],
        [-109.49686384201, -106.11529191151, 102.08226326124],
        [-109.49686384201, -105.49725758178, 103.98437614962],
        [-109.49686384201, -104.87922325206, 105.886489038],
        [-109.49686384201, -104.26118892233, 107.78860192639],
        [-109.49686384201, -103.6431545926, 109.69071481477]
],
      "InstanceNumber": [1, 2, 3, 4, 5, 6, 7, 8, 9, 10, 11, 12, 13, 14, 15, 16, 17, 18, 19, 20, 21, 22, 23, 24, 25, 26, 27, 28, 29, 30, 31, 32, 33, 34, 35, 36, 37, 38, 39, 40, 41, 42, 43, 44, 45, 46, 47, 48, 49, 50, 51, 52, 53, 54, 55, 56, 57],
      "SliceLocation": [-39.705423792351, -37.705423824134, -35.705423855918, -33.705423887701, -31.705423919484, -29.705423951268, -27.705423983051, -25.705424014834, -23.705424046618, -21.705424078401, -19.705424110185, -17.705424141968, -15.705424173751, -13.705424205535, -11.705424237318, -9.7054242691013, -7.7054243008846, -5.705424332668, -3.7054243644514, -1.7054243962347, 0.29457557198193, 2.2945755401986, 4.2945755084152, 6.2945754766319, 8.2945754448485, 10.294575413065, 12.294575381282, 14.294575349498, 16.294575317715, 18.294575285932, 20.294575254148, 22.294575222365, 24.294575190582, 26.294575158798, 28.294575127015, 30.294575095232, 32.294575063448, 34.294575031665, 36.294574999881, 38.294574968098, 40.294574936315, 42.294574904531, 44.294574872748, 46.294574840965, 48.294574809181, 50.294574777398, 52.294574745615, 54.294574713831, 56.294574682048, 58.294574650265, 60.294574618481, 62.294574586698, 64.294574554914, 66.294574523131, 68.294574491348, 70.294574459564, 72.294574427781]
    }
  }
}