{
  "AcquisitionMatrixPE": 110,
  "AcquisitionNumber": 1,
  "AcquisitionTime": "18:13:43.520000",
  "BandwidthPerPixelPhaseEncode": 12.987,
  "BaseResolution": 110,
  "BodyPartExamined": "BRAIN",
  "CoilCombinationMethod": "Sum of Squares",
  "ConsistencyInfo": "N4_VE11C_LATEST_20160120",
  "ConversionSoftware": "dcm2niix",
  "ConversionSoftwareVersion": "v1.0.20211006",
  "DerivedVendorReportedEchoSpacing": 0.000700001,
  "DeviceSerialNumber": "167006",
  "DiffusionScheme": "Monopolar",
  "DwellTime": 2.7e-06,
  "EchoTime": 0.0816,
  "EchoTrainLength": 83,
  "EffectiveEchoSpacing": 0.000700001,
  "FlipAngle": 78,
  "HeudiconvVersion": "0.5.3.post569+g418601f",
  "ImageComments": "Unaliased MB3/PE3/LB SENSE1",
  "ImageOrientationPatientDICOM": [1, 0, 0, 0, 0.965926, -0.258819],
  "ImageOrientationText": "Tra>Cor(-15.0)",
  "ImageType": [
    "ORIGINAL",
    "PRIMARY",
    "DIFFUSION",
    "NONE",
    "MB",
    "ND",
    "MOSAIC"
],
  "ImagingFrequency": 123.259,
  "InPlanePhaseEncodingDirectionDICOM": "COL",
  "InstitutionAddress": "Chemin Queen-Mary 4565,Montreal,District,CA,H3W 1W5",
  "InstitutionName": "IUGM",
  "InstitutionalDepartmentName": "Department",
  "MRAcquisitionType": "2D",
  "MagneticFieldStrength": 3,
  "Manufacturer": "Siemens",
  "ManufacturersModelName": "Prisma_fit",
  "MatrixCoilMode": "SENSE",
  "Modality": "MR",
  "MultibandAccelerationFactor": 3,
  "PartialFourier": 0.75,
  "PatientPosition": "HFS",
  "PercentPhaseFOV": 100,
  "PercentSampling": 100,
  "PhaseEncodingDirection": "j-",
  "PhaseEncodingSteps": 83,
  "PhaseResolution": 1,
  "PixelBandwidth": 1685,
  "ProcedureStepDescription": "anat^generic",
  "ProtocolName": "dMRI_dir98_AP_test_cmrr",
  "PulseSequenceDetails": "%CustomerSeq%\\cmrr_mbep2d_diff",
  "ReceiveCoilActiveElements": "HC1-7;NC1,2",
  "ReceiveCoilName": "HeadNeck_64",
  "ReconMatrixPE": 110,
  "RepetitionTime": 2.334,
  "SAR": 0.113444,
  "ScanOptions": "PFP\\EXT",
  "ScanningSequence": "EP",
  "SequenceName": "ep_b5#1",
  "SequenceVariant": "SK\\SS",
  "SeriesDescription": "dMRI_dir98_AP_test_cmrr",
  "SeriesNumber": 7,
  "ShimSetting": [636, -7226, -8734, 740, 45, 8, 120, -6],
  "SliceThickness": 2,
  "SliceTiming": [0, 1.2175, 0.1225, 1.34, 0.2425, 1.4625, 0.365, 1.5825, 0.4875, 1.705, 0.61, 1.8275, 0.73, 1.9475, 0.8525, 2.07, 0.975, 2.1925, 1.095, 0, 1.2175, 0.1225, 1.34, 0.2425, 1.4625, 0.365, 1.5825, 0.4875, 1.705, 0.61, 1.8275, 0.73, 1.9475, 0.8525, 2.07, 0.975, 2.1925, 1.095, 0, 1.2175, 0.1225, 1.34, 0.2425, 1.4625, 0.365, 1.5825, 0.4875, 1.705, 0.61, 1.8275, 0.73, 1.9475, 0.8525, 2.07, 0.975, 2.1925, 1.095],
  "SoftwareVersions": "syngo MR E11",
  "SpacingBetweenSlices": 2,
  "StationName": "MRC35049",
  "TotalReadoutTime": 0.0763001,
  "TxRefAmp": 206.625,
  "WipMemBlock": "4f58467d-53bc-40cd-b4f3-aeb44f3b83e1||Sequence: R016 ve11c/master r/e634e98; Dec 19 2017 11:11:25 by eja",
  "dcmmeta_affine": [
    [-2.0, 0.0, 0.0, 109.49686431884766],
    [0.0, 1.9318516254425049, -0.517638087272644, -81.88296508789062],
    [0.0, 0.517638087272644, 1.9318516254425049, -39.41472625732422],
    [0.0, 0.0, 0.0, 1.0]
],
  "dcmmeta_reorient_transform": [
    [0.0, -1.0, 0.0, 109.0],
    [1.0, 0.0, 0.0, 0.0],
    [0.0, 0.0, 1.0, 0.0],
    [0.0, 0.0, 0.0, 1.0]
],
  "dcmmeta_shape": [110, 110, 57, 99],
  "dcmmeta_slice_dim": 2,
  "dcmmeta_version": 0.6,
  "global": {
    "const": {
      "AcquisitionMatrix": [110, 0, 0, 110],
      "AngioFlag": "N",
      "BitsAllocated": 16,
      "BitsStored": 16,
      "BodyPartExamined": "BRAIN",
      "CardiacNumberOfImages": 1,
      "Columns": 880,
      "EchoNumbers": 1,
      "EchoTime": 81.6,
      "EchoTrainLength": 83,
      "FlipAngle": 78.0,
      "HighBit": 15,
      "ImageOrientationPatient": [1.0, 0.0, 0.0, 0.0, 0.9659258278573, -0.2588190392498],
      "ImagePositionPatient": [-879.49686384201, -872.45175358461, 216.29848571049],
      "ImageType": [
        "ORIGINAL",
        "PRIMARY",
        "DIFFUSION",
        "NONE",
        "MB",
        "ND",
        "MOSAIC"
],
      "ImagedNucleus": "1H",
      "ImagingFrequency": 123.259005,
      "InPlanePhaseEncodingDirection": "COL",
      "MRAcquisitionType": "2D",
      "MagneticFieldStrength": 3.0,
      "Manufacturer": "SIEMENS",
      "ManufacturerModelName": "Prisma_fit",
      "Modality": "MR",
      "NominalInterval": 0,
      "NumberOfAverages": 1.0,
      "NumberOfPhaseEncodingSteps": 83,
      "PercentPhaseFieldOfView": 100.0,
      "PercentSampling": 100.0,
      "PerformedProcedureStepStartTime": "175630.347000",
      "PhotometricInterpretation": "MONOCHROME2",
      "PixelBandwidth": 1685.0,
      "PixelRepresentation": 0,
      "PixelSpacing": [2.0, 2.0],
      "ProtocolName": "dMRI_dir98_AP_test_cmrr",
      "RepetitionTime": 2334.0,
      "Rows": 880,
      "SAR": 0.11344399836282,
      "SamplesPerPixel": 1,
      "ScanOptions": [
        "PFP",
        "EXT"
],
      "ScanningSequence": "EP",
      "SequenceVariant": [
        "SK",
        "SS"
],
      "SeriesDescription": "dMRI_dir98_AP_test_cmrr",
      "SeriesNumber": 7,
      "SeriesTime": "181446.587000",
      "SliceLocation": -16.878830780399,
      "SliceThickness": 2.0,
      "SmallestImagePixelValue": 0,
      "SoftwareVersions": "syngo MR E11",
      "SpacingBetweenSlices": 1.9999999357231,
      "SpecificCharacterSet": "ISO_IR 100",
      "StudyID": "1",
      "StudyTime": "175630.292000",
      "TransmitCoilName": "Body",
      "VariableFlipAngleFlag": "N",
      "WindowCenterWidthExplanation": "Algo1",
      "dBdt": 0.0},
    "slices": {}
  },
  "time": {
    "samples": {
      "AcquisitionNumber": [1, 2, 3, 4, 5, 6, 7, 8, 9, 10, 11, 12, 13, 14, 15, 16, 17, 18, 19, 20, 21, 22, 23, 24, 25, 26, 27, 28, 29, 30, 31, 32, 33, 34, 35, 36, 37, 38, 39, 40, 41, 42, 43, 44, 45, 46, 47, 48, 49, 50, 51, 52, 53, 54, 55, 56, 57, 58, 59, 60, 61, 62, 63, 64, 65, 66, 67, 68, 69, 70, 71, 72, 73, 74, 75, 76, 77, 78, 79, 80, 81, 82, 83, 84, 85, 86, 87, 88, 89, 90, 91, 92, 93, 94, 95, 96, 97, 98, 99],
      "AcquisitionTime": ["181343.520000", "181345.855000", "181348.187500", "181350.522500", "181352.855000", "181355.190000", "181357.525000", "181359.857500", "181402.192500", "181404.525000", "181406.860000", "181409.195000", "181411.527500", "181413.862500", "181416.195000", "181418.530000", "181420.865000", "181423.197500", "181425.532500", "181427.865000", "181430.200000", "181432.535000", "181434.867500", "181437.202500", "181439.535000", "181441.870000", "181444.205000", "181446.537500", "181448.872500", "181451.205000", "181453.540000", "181455.875000", "181458.207500", "181500.542500", "181502.875000", "181505.210000", "181507.545000", "181509.877500", "181512.212500", "181514.545000", "181516.880000", "181519.215000", "181521.547500", "181523.882500", "181526.215000", "181528.550000", "181530.885000", "181533.217500", "181535.552500", "181537.885000", "181540.220000", "181542.555000", "181544.887500", "181547.222500", "181549.555000", "181551.890000", "181554.225000", "181556.557500", "181558.892500", "181601.225000", "181603.560000", "181605.895000", "181608.227500", "181610.562500", "181612.895000", "181615.230000", "181617.565000", "181619.897500", "181622.232500", "181624.565000", "181626.900000", "181629.235000", "181631.567500", "181633.902500", "181636.235000", "181638.570000", "181640.905000", "181643.237500", "181645.572500", "181647.905000", "181650.240000", "181652.575000", "181654.907500", "181657.242500", "181659.575000", "181701.910000", "181704.245000", "181706.577500", "181708.912500", "181711.245000", "181713.580000", "181715.915000", "181718.247500", "181720.582500", "181722.915000", "181725.250000", "181727.585000", "181729.917500", "181732.252500"],
      "ContentTime": ["181446.590000", "181446.594000", "181446.602000", "181446.610000", "181446.613000", "181446.617000", "181446.620000", "181446.623000", "181446.626000", "181446.629000", "181446.632000", "181446.635000", "181446.639000", "181446.642000", "181446.645000", "181446.648000", "181446.651000", "181446.654000", "181446.657000", "181446.661000", "181446.664000", "181446.667000", "181446.670000", "181446.673000", "181446.676000", "181446.679000", "181546.562000", "181546.566000", "181546.569000", "181546.572000", "181546.575000", "181546.578000", "181546.581000", "181546.584000", "181546.588000", "181546.600000", "181546.603000", "181546.607000", "181546.610000", "181546.613000", "181546.616000", "181546.619000", "181546.622000", "181546.626000", "181546.629000", "181546.632000", "181546.635000", "181546.638000", "181546.641000", "181546.644000", "181546.648000", "181546.651000", "181646.562000", "181646.587000", "181646.590000", "181646.593000", "181646.596000", "181646.599000", "181646.603000", "181646.606000", "181646.609000", "181646.612000", "181646.615000", "181646.618000", "181646.621000", "181646.624000", "181646.627000", "181646.630000", "181646.633000", "181646.637000", "181646.640000", "181646.643000", "181646.646000", "181646.649000", "181646.652000", "181646.655000", "181646.658000", "181646.661000", "181737.027000", "181737.030000", "181737.034000", "181737.037000", "181737.040000", "181737.043000", "181737.046000", "181737.050000", "181737.053000", "181737.056000", "181737.060000", "181737.063000", "181737.066000", "181737.069000", "181737.072000", "181737.075000", "181737.079000", "181737.082000", "181737.085000", "181737.088000", "181737.091000"],
      "InstanceCreationTime": ["181446.590000", "181446.594000", "181446.602000", "181446.610000", "181446.613000", "181446.617000", "181446.620000", "181446.623000", "181446.626000", "181446.629000", "181446.632000", "181446.635000", "181446.639000", "181446.642000", "181446.645000", "181446.648000", "181446.651000", "181446.654000", "181446.657000", "181446.661000", "181446.664000", "181446.667000", "181446.670000", "181446.673000", "181446.676000", "181446.679000", "181546.562000", "181546.566000", "181546.569000", "181546.572000", "181546.575000", "181546.578000", "181546.581000", "181546.584000", "181546.588000", "181546.600000", "181546.603000", "181546.607000", "181546.610000", "181546.613000", "181546.616000", "181546.619000", "181546.622000", "181546.626000", "181546.629000", "181546.632000", "181546.635000", "181546.638000", "181546.641000", "181546.644000", "181546.648000", "181546.651000", "181646.562000", "181646.587000", "181646.590000", "181646.593000", "181646.596000", "181646.599000", "181646.603000", "181646.606000", "181646.609000", "181646.612000", "181646.615000", "181646.618000", "181646.621000", "181646.624000", "181646.627000", "181646.630000", "181646.633000", "181646.637000", "181646.640000", "181646.643000", "181646.646000", "181646.649000", "181646.652000", "181646.655000", "181646.658000", "181646.661000", "181737.027000", "181737.030000", "181737.034000", "181737.037000", "181737.040000", "181737.043000", "181737.046000", "181737.050000", "181737.053000", "181737.056000", "181737.060000", "181737.063000", "181737.066000", "181737.069000", "181737.072000", "181737.075000", "181737.079000", "181737.082000", "181737.085000", "181737.088000", "181737.091000"],
      "InstanceNumber": [1, 2, 3, 4, 5, 6, 7, 8, 9, 10, 11, 12, 13, 14, 15, 16, 17, 18, 19, 20, 21, 22, 23, 24, 25, 26, 27, 28, 29, 30, 31, 32, 33, 34, 35, 36, 37, 38, 39, 40, 41, 42, 43, 44, 45, 46, 47, 48, 49, 50, 51, 52, 53, 54, 55, 56, 57, 58, 59, 60, 61, 62, 63, 64, 65, 66, 67, 68, 69, 70, 71, 72, 73, 74, 75, 76, 77, 78, 79, 80, 81, 82, 83, 84, 85, 86, 87, 88, 89, 90, 91, 92, 93, 94, 95, 96, 97, 98, 99],
      "LargestImagePixelValue": [34027, 33979, 9137, 3634, 11434, 4807, 9779, 4318, 9822, 5254, 10054, 4670, 10279, 4493, 9405, 5267, 9805, 30228, 4613, 9516, 4312, 9310, 5886, 9198, 4037, 9227, 4432, 10852, 4793, 8813, 4974, 10745, 5123, 32592, 9896, 4491, 8863, 4143, 9419, 4185, 10690, 4141, 10062, 4441, 9060, 4589, 9745, 4979, 10467, 32912, 5242, 9140, 4464, 10028, 5513, 9305, 4980, 10009, 5095, 10579, 5036, 9622, 4616, 9924, 5149, 30530, 10222, 4490, 9363, 4491, 11362, 5796, 10470, 4681, 10039, 4355, 9422, 4194, 9531, 4383, 9127, 31082, 4613, 10258, 4216, 10675, 4670, 9005, 4254, 9651, 4606, 10320, 4416, 10514, 5115, 9984, 4857, 9476, 4710],
      "SequenceName": [
 "ep_b5#1",
 "ep_b5#1",
 "ep_b1490#2",
 "ep_b2990#3",
 "ep_b1495#4",
 "ep_b3005#5",
 "ep_b1500#6",
 "ep_b2985#7",
 "ep_b1495#8",
 "ep_b3005#9",
 "ep_b1490#10",
 "ep_b2995#11",
 "ep_b1490#12",
 "ep_b2990#13",
 "ep_b1500#14",
 "ep_b2985#15",
 "ep_b1500#16",
 "ep_b5#17",
 "ep_b3005#18",
 "ep_b1490#19",
 "ep_b2995#20",
 "ep_b1500#21",
 "ep_b3000#22",
 "ep_b1495#23",
 "ep_b3005#24",
 "ep_b1490#25",
 "ep_b2985#26",
 "ep_b1505#27",
 "ep_b2990#28",
 "ep_b1500#29",
 "ep_b3000#30",
 "ep_b1490#31",
 "ep_b3000#32",
 "ep_b5#33",
 "ep_b1505#34",
 "ep_b3000#35",
 "ep_b1495#36",
 "ep_b2985#37",
 "ep_b1495#38",
 "ep_b2995#39",
 "ep_b1500#40",
 "ep_b2995#41",
 "ep_b1500#42",
 "ep_b2990#43",
 "ep_b1495#44",
 "ep_b3000#45",
 "ep_b1495#46",
 "ep_b3000#47",
 "ep_b1490#48",
 "ep_b5#49",
 "ep_b3005#50",
 "ep_b1500#51",
 "ep_b2990#52",
 "ep_b1505#53",
 "ep_b2995#54",
 "ep_b1495#55",
 "ep_b2990#56",
 "ep_b1490#57",
 "ep_b2995#58",
 "ep_b1500#59",
 "ep_b3000#60",
 "ep_b1500#61",
 "ep_b2985#62",
 "ep_b1500#63",
 "ep_b2990#64",
 "ep_b5#65",
 "ep_b1505#66",
 "ep_b3005#67",
 "ep_b1495#68",
 "ep_b3000#69",
 "ep_b1505#70",
 "ep_b3005#71",
 "ep_b1500#72",
 "ep_b3000#73",
 "ep_b1495#74",
 "ep_b2995#75",
 "ep_b1495#76",
 "ep_b2995#77",
 "ep_b1500#78",
 "ep_b3000#79",
 "ep_b1495#80",
 "ep_b5#81",
 "ep_b2990#82",
 "ep_b1500#83",
 "ep_b2985#84",
 "ep_b1495#85",
 "ep_b2995#86",
 "ep_b1495#87",
 "ep_b2995#88",
 "ep_b1490#89",
 "ep_b2985#90",
 "ep_b1500#91",
 "ep_b3000#92",
 "ep_b1490#93",
 "ep_b3005#94",
 "ep_b1495#95",
 "ep_b2990#96",
 "ep_b1500#97",
 "ep_b3000#98"
],
      "TriggerTime": [13297.5, 15630.0, 17965.0, 20300.0, 22632.5, 24967.5, 27300.0, 29635.0, 31970.0, 34302.5, 36637.5, 38970.0, 41305.0, 43640.0, 45972.5, 48307.5, 50640.0, 52975.0, 55310.0, 57642.5, 59977.5, 62310.0, 64645.0, 66980.0, 69312.5, 71647.5, 73980.0, 76315.0, 78650.0, 80982.5, 83317.5, 85650.0, 87985.0, 90320.0, 92652.5, 94987.5, 97320.0, 99655.0, 101990.0, 104322.5, 106657.5, 108990.0, 111325.0, 113660.0, 115992.5, 118327.5, 120660.0, 122995.0, 125330.0, 127662.5, 129997.5, 132330.0, 134665.0, 137000.0, 139332.5, 141667.5, 144000.0, 146335.0, 148670.0, 151002.5, 153337.5, 155670.0, 158005.0, 160340.0, 162672.5, 165007.5, 167340.0, 169675.0, 172010.0, 174342.5, 176677.5, 179010.0, 181345.0, 183680.0, 186012.5, 188347.5, 190680.0, 193015.0, 195350.0, 197682.5, 200017.5, 202350.0, 204685.0, 207020.0, 209352.5, 211687.5, 214020.0, 216355.0, 218690.0, 221022.5, 223357.5, 225690.0, 228025.0, 230360.0, 232692.5, 235027.5, 237360.0, 239695.0, 242030.0],
      "WindowCenter": [6755.0, 6754.0, 2610.0, 1525.0, 2738.0, 1603.0, 2713.0, 1516.0, 2642.0, 1561.0, 2631.0, 1600.0, 2743.0, 1559.0, 2659.0, 1588.0, 2653.0, 6650.0, 1556.0, 2662.0, 1576.0, 2666.0, 1614.0, 2616.0, 1578.0, 2625.0, 1554.0, 2717.0, 1577.0, 2676.0, 1568.0, 2697.0, 1612.0, 6690.0, 2682.0, 1545.0, 2590.0, 1528.0, 2668.0, 1614.0, 2700.0, 1533.0, 2670.0, 1571.0, 2614.0, 1569.0, 2630.0, 1583.0, 2683.0, 6720.0, 1598.0, 2695.0, 1576.0, 2620.0, 1602.0, 2656.0, 1627.0, 2680.0, 1567.0, 2659.0, 1568.0, 2631.0, 1524.0, 2738.0, 1620.0, 6665.0, 2674.0, 1569.0, 2671.0, 1606.0, 2683.0, 1613.0, 2698.0, 1551.0, 2639.0, 1558.0, 2642.0, 1591.0, 2699.0, 1556.0, 2655.0, 6715.0, 1571.0, 2638.0, 1542.0, 2724.0, 1551.0, 2605.0, 1564.0, 2644.0, 1554.0, 2675.0, 1587.0, 2767.0, 1568.0, 2686.0, 1574.0, 2654.0, 1601.0],
      "WindowWidth": [14528.0, 14517.0, 6211.0, 3971.0, 6469.0, 4116.0, 6427.0, 3942.0, 6281.0, 4010.0, 6252.0, 4113.0, 6475.0, 4037.0, 6324.0, 4095.0, 6304.0, 14314.0, 4023.0, 6324.0, 4074.0, 6323.0, 4149.0, 6228.0, 4078.0, 6233.0, 4003.0, 6408.0, 4079.0, 6355.0, 4042.0, 6388.0, 4130.0, 14380.0, 6349.0, 4009.0, 6174.0, 3951.0, 6319.0, 4169.0, 6383.0, 3983.0, 6334.0, 4052.0, 6223.0, 4039.0, 6255.0, 4084.0, 6354.0, 14435.0, 4099.0, 6381.0, 4078.0, 6230.0, 4131.0, 6306.0, 4168.0, 6344.0, 4037.0, 6319.0, 4045.0, 6265.0, 3939.0, 6468.0, 4170.0, 14329.0, 6339.0, 4054.0, 6341.0, 4135.0, 6353.0, 4137.0, 6394.0, 3995.0, 6267.0, 4037.0, 6277.0, 4104.0, 6394.0, 4029.0, 6297.0, 14428.0, 4047.0, 6274.0, 3984.0, 6433.0, 4014.0, 6208.0, 4049.0, 6272.0, 4006.0, 6346.0, 4096.0, 6522.0, 4046.0, 6371.0, 4073.0, 6303.0, 4111.0]
    },
    "slices": {}
  }
}