{
  "AcquisitionMatrixPE": 110,
  "AcquisitionNumber": 1,
  "AcquisitionTime": "18:18:1.920000",
  "BandwidthPerPixelPhaseEncode": 12.987,
  "BaseResolution": 110,
  "BodyPartExamined": "BRAIN",
  "CoilCombinationMethod": "Sum of Squares",
  "ConsistencyInfo": "N4_VE11C_LATEST_20160120",
  "ConversionSoftware": "dcm2niix",
  "ConversionSoftwareVersion": "v1.0.20211006",
  "DerivedVendorReportedEchoSpacing": 0.000700001,
  "DeviceSerialNumber": "167006",
  "DiffusionScheme": "Monopolar",
  "DwellTime": 2.7e-06,
  "EchoTime": 0.0816,
  "EchoTrainLength": 83,
  "EffectiveEchoSpacing": 0.000700001,
  "FlipAngle": 78,
  "HeudiconvVersion": "0.5.3.post569+g418601f",
  "ImageComments": "Unaliased MB3/PE3/LB SENSE1",
  "ImageOrientationPatientDICOM": [1, 0, 0, 0, 0.965926, -0.258819],
  "ImageOrientationText": "Tra>Cor(-15.0)",
  "ImageType": [
    "ORIGINAL",
    "PRIMARY",
    "DIFFUSION",
    "NONE",
    "MB",
    "ND",
    "MOSAIC"
],
  "ImagingFrequency": 123.259,
  "InPlanePhaseEncodingDirectionDICOM": "COL",
  "InstitutionAddress": "Chemin Queen-Mary 4565,Montreal,District,CA,H3W 1W5",
  "InstitutionName": "IUGM",
  "InstitutionalDepartmentName": "Department",
  "MRAcquisitionType": "2D",
  "MagneticFieldStrength": 3,
  "Manufacturer": "Siemens",
  "ManufacturersModelName": "Prisma_fit",
  "MatrixCoilMode": "SENSE",
  "Modality": "MR",
  "MultibandAccelerationFactor": 3,
  "PartialFourier": 0.75,
  "PatientPosition": "HFS",
  "PercentPhaseFOV": 100,
  "PercentSampling": 100,
  "PhaseEncodingDirection": "j",
  "PhaseEncodingSteps": 83,
  "PhaseResolution": 1,
  "PixelBandwidth": 1685,
  "ProcedureStepDescription": "anat^generic",
  "ProtocolName": "dMRI_dir98_PA_test_cmrr",
  "PulseSequenceDetails": "%CustomerSeq%\\cmrr_mbep2d_diff",
  "ReceiveCoilActiveElements": "HC1-7;NC1,2",
  "ReceiveCoilName": "HeadNeck_64",
  "ReconMatrixPE": 110,
  "RepetitionTime": 2.334,
  "SAR": 0.113444,
  "ScanOptions": "PFP\\EXT",
  "ScanningSequence": "EP",
  "SequenceName": "ep_b5#1",
  "SequenceVariant": "SK\\SS",
  "SeriesDescription": "dMRI_dir98_PA_test_cmrr",
  "SeriesNumber": 11,
  "ShimSetting": [636, -7226, -8734, 740, 45, 8, 120, -6],
  "SliceThickness": 2,
  "SliceTiming": [0, 1.2175, 0.1225, 1.34, 0.2425, 1.46, 0.365, 1.5825, 0.4875, 1.705, 0.6075, 1.8275, 0.73, 1.9475, 0.8525, 2.07, 0.975, 2.1925, 1.095, 0, 1.2175, 0.1225, 1.34, 0.2425, 1.46, 0.365, 1.5825, 0.4875, 1.705, 0.6075, 1.8275, 0.73, 1.9475, 0.8525, 2.07, 0.975, 2.1925, 1.095, 0, 1.2175, 0.1225, 1.34, 0.2425, 1.46, 0.365, 1.5825, 0.4875, 1.705, 0.6075, 1.8275, 0.73, 1.9475, 0.8525, 2.07, 0.975, 2.1925, 1.095],
  "SoftwareVersions": "syngo MR E11",
  "SpacingBetweenSlices": 2,
  "StationName": "MRC35049",
  "TotalReadoutTime": 0.0763001,
  "TxRefAmp": 206.625,
  "WipMemBlock": "b3d8f68a-f659-4ee2-937b-7d55ca0cf39b||Sequence: R016 ve11c/master r/e634e98; Dec 19 2017 11:11:25 by eja",
  "dcmmeta_affine": [
    [-2.0, 0.0, 0.0, 109.49686431884766],
    [0.0, 1.9318516254425049, -0.517638087272644, -81.88296508789062],
    [0.0, 0.517638087272644, 1.9318516254425049, -39.41472625732422],
    [0.0, 0.0, 0.0, 1.0]
],
  "dcmmeta_reorient_transform": [
    [0.0, -1.0, 0.0, 109.0],
    [1.0, 0.0, 0.0, 0.0],
    [0.0, 0.0, 1.0, 0.0],
    [0.0, 0.0, 0.0, 1.0]
],
  "dcmmeta_shape": [110, 110, 57, 99],
  "dcmmeta_slice_dim": 2,
  "dcmmeta_version": 0.6,
  "global": {
    "const": {
      "AcquisitionMatrix": [110, 0, 0, 110],
      "AngioFlag": "N",
      "BitsAllocated": 16,
      "BitsStored": 16,
      "BodyPartExamined": "BRAIN",
      "CardiacNumberOfImages": 1,
      "Columns": 880,
      "EchoNumbers": 1,
      "EchoTime": 81.6,
      "EchoTrainLength": 83,
      "FlipAngle": 78.0,
      "HighBit": 15,
      "ImageOrientationPatient": [1.0, 0.0, 0.0, 0.0, 0.9659258278573, -0.2588190392498],
      "ImagePositionPatient": [-879.49686384201, -872.45175358461, 216.29848571049],
      "ImageType": [
        "ORIGINAL",
        "PRIMARY",
        "DIFFUSION",
        "NONE",
        "MB",
        "ND",
        "MOSAIC"
],
      "ImagedNucleus": "1H",
      "ImagingFrequency": 123.259007,
      "InPlanePhaseEncodingDirection": "COL",
      "MRAcquisitionType": "2D",
      "MagneticFieldStrength": 3.0,
      "Manufacturer": "SIEMENS",
      "ManufacturerModelName": "Prisma_fit",
      "Modality": "MR",
      "NominalInterval": 0,
      "NumberOfAverages": 1.0,
      "NumberOfPhaseEncodingSteps": 83,
      "PercentPhaseFieldOfView": 100.0,
      "PercentSampling": 100.0,
      "PerformedProcedureStepStartTime": "175630.347000",
      "PhotometricInterpretation": "MONOCHROME2",
      "PixelBandwidth": 1685.0,
      "PixelRepresentation": 0,
      "PixelSpacing": [2.0, 2.0],
      "ProtocolName": "dMRI_dir98_PA_test_cmrr",
      "RepetitionTime": 2334.0,
      "Rows": 880,
      "SAR": 0.11344399836282,
      "SamplesPerPixel": 1,
      "ScanOptions": [
        "PFP",
        "EXT"
],
      "ScanningSequence": "EP",
      "SequenceVariant": [
        "SK",
        "SS"
],
      "SeriesDescription": "dMRI_dir98_PA_test_cmrr",
      "SeriesNumber": 11,
      "SeriesTime": "181908.534000",
      "SliceLocation": -16.878830780399,
      "SliceThickness": 2.0,
      "SmallestImagePixelValue": 0,
      "SoftwareVersions": "syngo MR E11",
      "SpacingBetweenSlices": 1.9999999357231,
      "SpecificCharacterSet": "ISO_IR 100",
      "StudyID": "1",
      "StudyTime": "175630.292000",
      "TransmitCoilName": "Body",
      "VariableFlipAngleFlag": "N",
      "WindowCenterWidthExplanation": "Algo1",
      "dBdt": 0.0},
    "slices": {}
  },
  "time": {
    "samples": {
      "AcquisitionNumber": [1, 2, 3, 4, 5, 6, 7, 8, 9, 10, 11, 12, 13, 14, 15, 16, 17, 18, 19, 20, 21, 22, 23, 24, 25, 26, 27, 28, 29, 30, 31, 32, 33, 34, 35, 36, 37, 38, 39, 40, 41, 42, 43, 44, 45, 46, 47, 48, 49, 50, 51, 52, 53, 54, 55, 56, 57, 58, 59, 60, 61, 62, 63, 64, 65, 66, 67, 68, 69, 70, 71, 72, 73, 74, 75, 76, 77, 78, 79, 80, 81, 82, 83, 84, 85, 86, 87, 88, 89, 90, 91, 92, 93, 94, 95, 96, 97, 98, 99],
      "AcquisitionTime": ["181801.920000", "181804.252500", "181806.587500", "181808.922500", "181811.255000", "181813.590000", "181815.922500", "181818.257500", "181820.592500", "181822.925000", "181825.260000", "181827.592500", "181829.927500", "181832.262500", "181834.595000", "181836.930000", "181839.262500", "181841.597500", "181843.932500", "181846.265000", "181848.600000", "181850.932500", "181853.267500", "181855.602500", "181857.935000", "181900.270000", "181902.602500", "181904.937500", "181907.272500", "181909.605000", "181911.940000", "181914.272500", "181916.607500", "181918.942500", "181921.275000", "181923.610000", "181925.942500", "181928.277500", "181930.612500", "181932.945000", "181935.280000", "181937.612500", "181939.947500", "181942.282500", "181944.615000", "181946.950000", "181949.282500", "181951.617500", "181953.952500", "181956.285000", "181958.620000", "182000.952500", "182003.287500", "182005.622500", "182007.955000", "182010.290000", "182012.622500", "182014.957500", "182017.292500", "182019.625000", "182021.960000", "182024.292500", "182026.627500", "182028.962500", "182031.295000", "182033.630000", "182035.962500", "182038.297500", "182040.632500", "182042.965000", "182045.300000", "182047.632500", "182049.967500", "182052.302500", "182054.635000", "182056.970000", "182059.302500", "182101.637500", "182103.972500", "182106.305000", "182108.640000", "182110.972500", "182113.307500", "182115.642500", "182117.975000", "182120.310000", "182122.642500", "182124.977500", "182127.312500", "182129.645000", "182131.980000", "182134.312500", "182136.647500", "182138.982500", "182141.315000", "182143.650000", "182145.982500", "182148.317500", "182150.652500"],
      "ContentTime": ["181908.537000", "181908.540000", "181908.543000", "181908.546000", "181908.549000", "181908.552000", "181908.556000", "181908.559000", "181908.562000", "181908.565000", "181908.568000", "181908.571000", "181908.574000", "181908.577000", "181908.581000", "181908.584000", "181908.587000", "181908.590000", "181908.593000", "181908.596000", "181908.599000", "181908.602000", "181908.605000", "181908.609000", "181908.612000", "181908.615000", "181908.618000", "181908.621000", "182008.492000", "182008.495000", "182008.498000", "182008.502000", "182008.505000", "182008.508000", "182008.511000", "182008.514000", "182008.517000", "182008.520000", "182008.523000", "182008.527000", "182008.530000", "182008.533000", "182008.536000", "182008.539000", "182008.542000", "182008.545000", "182008.548000", "182008.552000", "182008.555000", "182008.558000", "182008.561000", "182008.564000", "182008.567000", "182108.493000", "182108.496000", "182108.500000", "182108.503000", "182108.506000", "182108.509000", "182108.512000", "182108.515000", "182108.518000", "182108.521000", "182108.524000", "182108.527000", "182108.530000", "182108.534000", "182108.537000", "182108.540000", "182108.543000", "182108.546000", "182108.563000", "182108.566000", "182108.569000", "182108.572000", "182108.576000", "182108.579000", "182108.582000", "182108.585000", "182155.903000", "182155.907000", "182155.915000", "182155.918000", "182155.922000", "182155.932000", "182155.935000", "182155.938000", "182155.942000", "182155.945000", "182155.948000", "182155.951000", "182155.954000", "182155.957000", "182155.960000", "182155.963000", "182155.966000", "182155.970000", "182155.973000", "182155.976000"],
      "InstanceCreationTime": ["181908.537000", "181908.540000", "181908.543000", "181908.546000", "181908.549000", "181908.552000", "181908.556000", "181908.559000", "181908.562000", "181908.565000", "181908.568000", "181908.571000", "181908.574000", "181908.577000", "181908.581000", "181908.584000", "181908.587000", "181908.590000", "181908.593000", "181908.596000", "181908.599000", "181908.602000", "181908.605000", "181908.609000", "181908.612000", "181908.615000", "181908.618000", "181908.621000", "182008.492000", "182008.495000", "182008.498000", "182008.502000", "182008.505000", "182008.508000", "182008.511000", "182008.514000", "182008.517000", "182008.520000", "182008.523000", "182008.527000", "182008.530000", "182008.533000", "182008.536000", "182008.539000", "182008.542000", "182008.545000", "182008.548000", "182008.552000", "182008.555000", "182008.558000", "182008.561000", "182008.564000", "182008.567000", "182108.493000", "182108.496000", "182108.500000", "182108.503000", "182108.506000", "182108.509000", "182108.512000", "182108.515000", "182108.518000", "182108.521000", "182108.524000", "182108.527000", "182108.530000", "182108.534000", "182108.537000", "182108.540000", "182108.543000", "182108.546000", "182108.563000", "182108.566000", "182108.569000", "182108.572000", "182108.576000", "182108.579000", "182108.582000", "182108.585000", "182155.903000", "182155.907000", "182155.915000", "182155.918000", "182155.922000", "182155.932000", "182155.935000", "182155.938000", "182155.942000", "182155.945000", "182155.948000", "182155.951000", "182155.954000", "182155.957000", "182155.960000", "182155.963000", "182155.966000", "182155.970000", "182155.973000", "182155.976000"],
      "InstanceNumber": [1, 2, 3, 4, 5, 6, 7, 8, 9, 10, 11, 12, 13, 14, 15, 16, 17, 18, 19, 20, 21, 22, 23, 24, 25, 26, 27, 28, 29, 30, 31, 32, 33, 34, 35, 36, 37, 38, 39, 40, 41, 42, 43, 44, 45, 46, 47, 48, 49, 50, 51, 52, 53, 54, 55, 56, 57, 58, 59, 60, 61, 62, 63, 64, 65, 66, 67, 68, 69, 70, 71, 72, 73, 74, 75, 76, 77, 78, 79, 80, 81, 82, 83, 84, 85, 86, 87, 88, 89, 90, 91, 92, 93, 94, 95, 96, 97, 98, 99],
      "LargestImagePixelValue": [49807, 49865, 15775, 6544, 14128, 7135, 14316, 7443, 15080, 6687, 16057, 7660, 14899, 6854, 15805, 6948, 14718, 51810, 7175, 16683, 5921, 17975, 7739, 18000, 7192, 16977, 6877, 15545, 6603, 15698, 6657, 15093, 7540, 46848, 16400, 6647, 17732, 6650, 15636, 5551, 16582, 7861, 14072, 7060, 15817, 5802, 17904, 7049, 15235, 51546, 7237, 16112, 6594, 15993, 6904, 15507, 6881, 14877, 6470, 15053, 6982, 15253, 7917, 15111, 6962, 52018, 15607, 7451, 15789, 5820, 16247, 7385, 14921, 6225, 15406, 6584, 16788, 7069, 14988, 6274, 15633, 50560, 6906, 14560, 7123, 14705, 7475, 17773, 7793, 16038, 6992, 17004, 7310, 14625, 6820, 14747, 6610, 15997, 7344],
      "SequenceName": [
 "ep_b5#1",
 "ep_b5#1",
 "ep_b1490#2",
 "ep_b2990#3",
 "ep_b1495#4",
 "ep_b3005#5",
 "ep_b1500#6",
 "ep_b2985#7",
 "ep_b1495#8",
 "ep_b3005#9",
 "ep_b1490#10",
 "ep_b2995#11",
 "ep_b1490#12",
 "ep_b2990#13",
 "ep_b1500#14",
 "ep_b2985#15",
 "ep_b1500#16",
 "ep_b5#17",
 "ep_b3005#18",
 "ep_b1490#19",
 "ep_b2995#20",
 "ep_b1500#21",
 "ep_b3000#22",
 "ep_b1495#23",
 "ep_b3005#24",
 "ep_b1490#25",
 "ep_b2985#26",
 "ep_b1505#27",
 "ep_b2990#28",
 "ep_b1500#29",
 "ep_b3000#30",
 "ep_b1490#31",
 "ep_b3000#32",
 "ep_b5#33",
 "ep_b1505#34",
 "ep_b3000#35",
 "ep_b1495#36",
 "ep_b2985#37",
 "ep_b1495#38",
 "ep_b2995#39",
 "ep_b1500#40",
 "ep_b2995#41",
 "ep_b1500#42",
 "ep_b2990#43",
 "ep_b1495#44",
 "ep_b3000#45",
 "ep_b1495#46",
 "ep_b3000#47",
 "ep_b1490#48",
 "ep_b5#49",
 "ep_b3005#50",
 "ep_b1500#51",
 "ep_b2990#52",
 "ep_b1505#53",
 "ep_b2995#54",
 "ep_b1495#55",
 "ep_b2990#56",
 "ep_b1490#57",
 "ep_b2995#58",
 "ep_b1500#59",
 "ep_b3000#60",
 "ep_b1500#61",
 "ep_b2985#62",
 "ep_b1500#63",
 "ep_b2990#64",
 "ep_b5#65",
 "ep_b1505#66",
 "ep_b3005#67",
 "ep_b1495#68",
 "ep_b3000#69",
 "ep_b1505#70",
 "ep_b3005#71",
 "ep_b1500#72",
 "ep_b3000#73",
 "ep_b1495#74",
 "ep_b2995#75",
 "ep_b1495#76",
 "ep_b2995#77",
 "ep_b1500#78",
 "ep_b3000#79",
 "ep_b1495#80",
 "ep_b5#81",
 "ep_b2990#82",
 "ep_b1500#83",
 "ep_b2985#84",
 "ep_b1495#85",
 "ep_b2995#86",
 "ep_b1495#87",
 "ep_b2995#88",
 "ep_b1490#89",
 "ep_b2985#90",
 "ep_b1500#91",
 "ep_b3000#92",
 "ep_b1490#93",
 "ep_b3005#94",
 "ep_b1495#95",
 "ep_b2990#96",
 "ep_b1500#97",
 "ep_b3000#98"
],
      "TriggerTime": [13297.5, 15630.0, 17965.0, 20300.0, 22632.5, 24967.5, 27300.0, 29635.0, 31970.0, 34302.5, 36637.5, 38970.0, 41305.0, 43640.0, 45972.5, 48307.5, 50640.0, 52975.0, 55310.0, 57642.5, 59977.5, 62310.0, 64645.0, 66980.0, 69312.5, 71647.5, 73980.0, 76315.0, 78650.0, 80982.5, 83317.5, 85650.0, 87985.0, 90320.0, 92652.5, 94987.5, 97320.0, 99655.0, 101990.0, 104322.5, 106657.5, 108990.0, 111325.0, 113660.0, 115992.5, 118327.5, 120660.0, 122995.0, 125330.0, 127662.5, 129997.5, 132330.0, 134665.0, 137000.0, 139332.5, 141667.5, 144000.0, 146335.0, 148670.0, 151002.5, 153337.5, 155670.0, 158005.0, 160340.0, 162672.5, 165007.5, 167340.0, 169675.0, 172010.0, 174342.5, 176677.5, 179010.0, 181345.0, 183680.0, 186012.5, 188347.5, 190680.0, 193015.0, 195350.0, 197682.5, 200017.5, 202350.0, 204685.0, 207020.0, 209352.5, 211687.5, 214020.0, 216355.0, 218690.0, 221022.5, 223357.5, 225690.0, 228025.0, 230360.0, 232692.5, 235027.5, 237360.0, 239695.0, 242030.0],
      "WindowCenter": [6906.0, 6883.0, 2765.0, 1658.0, 2735.0, 1674.0, 2731.0, 1682.0, 2738.0, 1605.0, 2761.0, 1713.0, 2783.0, 1674.0, 2725.0, 1659.0, 2686.0, 6851.0, 1657.0, 2787.0, 1637.0, 2804.0, 1705.0, 2762.0, 1687.0, 2736.0, 1612.0, 2748.0, 1644.0, 2739.0, 1590.0, 2741.0, 1701.0, 6810.0, 2741.0, 1610.0, 2770.0, 1644.0, 2774.0, 1645.0, 2804.0, 1681.0, 2693.0, 1700.0, 2753.0, 1596.0, 2798.0, 1659.0, 2743.0, 6815.0, 1659.0, 2789.0, 1643.0, 2716.0, 1671.0, 2719.0, 1686.0, 2775.0, 1594.0, 2734.0, 1613.0, 2705.0, 1667.0, 2759.0, 1674.0, 6869.0, 2738.0, 1668.0, 2723.0, 1627.0, 2788.0, 1690.0, 2745.0, 1578.0, 2732.0, 1626.0, 2760.0, 1696.0, 2752.0, 1594.0, 2758.0, 6814.0, 1688.0, 2704.0, 1639.0, 2761.0, 1688.0, 2766.0, 1695.0, 2727.0, 1641.0, 2759.0, 1686.0, 2765.0, 1626.0, 2710.0, 1646.0, 2688.0, 1704.0],
      "WindowWidth": [14822.0, 14779.0, 6589.0, 4247.0, 6524.0, 4290.0, 6499.0, 4302.0, 6524.0, 4122.0, 6582.0, 4363.0, 6623.0, 4293.0, 6478.0, 4260.0, 6427.0, 14702.0, 4246.0, 6621.0, 4188.0, 6647.0, 4361.0, 6561.0, 4315.0, 6517.0, 4155.0, 6554.0, 4224.0, 6535.0, 4093.0, 6539.0, 4342.0, 14641.0, 6535.0, 4148.0, 6585.0, 4220.0, 6590.0, 4218.0, 6667.0, 4293.0, 6435.0, 4336.0, 6558.0, 4106.0, 6644.0, 4255.0, 6542.0, 14632.0, 4255.0, 6635.0, 4221.0, 6479.0, 4278.0, 6497.0, 4304.0, 6607.0, 4098.0, 6516.0, 4159.0, 6453.0, 4261.0, 6548.0, 4284.0, 14737.0, 6540.0, 4270.0, 6506.0, 4168.0, 6633.0, 4328.0, 6523.0, 4071.0, 6526.0, 4189.0, 6569.0, 4326.0, 6568.0, 4100.0, 6561.0, 14633.0, 4313.0, 6467.0, 4205.0, 6575.0, 4317.0, 6570.0, 4317.0, 6507.0, 4211.0, 6568.0, 4307.0, 6574.0, 4180.0, 6459.0, 4236.0, 6420.0, 4353.0]
    },
    "slices": {}
  }
}