{
  "AcquisitionMatrixPE": 110,
  "AcquisitionNumber": 1,
  "AcquisitionTime": "15:45:51.445000",
  "BandwidthPerPixelPhaseEncode": 12.987,
  "BaseResolution": 110,
  "BodyPartExamined": "BRAIN",
  "ConsistencyInfo": "N4_VE11C_LATEST_20160120",
  "ConversionSoftware": "dcm2niix",
  "ConversionSoftwareVersion": "v1.0.20190902",
  "DerivedVendorReportedEchoSpacing": 0.000700001,
  "DeviceSerialNumber": "167006",
  "DiffusionScheme": "Monopolar",
  "DwellTime": 2.7e-06,
  "EchoTime": 0.0816,
  "EchoTrainLength": 83,
  "EffectiveEchoSpacing": 0.000700001,
  "FlipAngle": 78,
  "ImageComments": "Unaliased_MB3_PE3_LB_SENSE1",
  "ImageOrientationPatientDICOM": [1, 0, 0, 0, 0.955278, -0.295708],
  "ImageType": [
    "ORIGINAL",
    "PRIMARY",
    "DIFFUSION",
    "NONE",
    "MB",
    "ND",
    "MOSAIC"
],
  "ImagingFrequency": 123.26,
  "InPlanePhaseEncodingDirectionDICOM": "COL",
  "InstitutionAddress": "Chemin_Queen-Mary_4565_Montreal_District_CA_H3W_1W5",
  "InstitutionName": "IUGM",
  "InstitutionalDepartmentName": "Department",
  "MRAcquisitionType": "2D",
  "MagneticFieldStrength": 3,
  "Manufacturer": "Siemens",
  "ManufacturersModelName": "Prisma_fit",
  "Modality": "MR",
  "MultibandAccelerationFactor": 3,
  "PartialFourier": 0.75,
  "PatientPosition": "HFS",
  "PercentPhaseFOV": 100,
  "PhaseEncodingDirection": "j",
  "PhaseEncodingSteps": 83,
  "PhaseResolution": 1,
  "PixelBandwidth": 1685,
  "ProcedureStepDescription": "hcptrt_generic",
  "ProtocolName": "dMRI_dir98_PA_test_cmrr",
  "PulseSequenceDetails": "%CustomerSeq%_cmrr_mbep2d_diff",
  "ReceiveCoilActiveElements": "HC1-6",
  "ReceiveCoilName": "HeadNeck_64",
  "ReconMatrixPE": 110,
  "RepetitionTime": 2.334,
  "SAR": 0.149413,
  "ScanOptions": "PFP_EXT",
  "ScanningSequence": "EP",
  "SequenceName": "ep_b5#1",
  "SequenceVariant": "SK_SS",
  "SeriesDescription": "dMRI_dir98_PA_test_cmrr",
  "SeriesNumber": 11,
  "ShimSetting": [637, -7203, -8839, 651, 136, 44, -25, -32],
  "SliceThickness": 2,
  "SliceTiming": [0, 1.2175, 0.1225, 1.34, 0.2425, 1.46, 0.365, 1.5825, 0.4875, 1.705, 0.6075, 1.8275, 0.73, 1.9475, 0.8525, 2.07, 0.975, 2.1925, 1.095, 0, 1.2175, 0.1225, 1.34, 0.2425, 1.46, 0.365, 1.5825, 0.4875, 1.705, 0.6075, 1.8275, 0.73, 1.9475, 0.8525, 2.07, 0.975, 2.1925, 1.095, 0, 1.2175, 0.1225, 1.34, 0.2425, 1.46, 0.365, 1.5825, 0.4875, 1.705, 0.6075, 1.8275, 0.73, 1.9475, 0.8525, 2.07, 0.975, 2.1925, 1.095],
  "SoftwareVersions": "syngo_MR_E11",
  "SpacingBetweenSlices": 2,
  "StationName": "MRC35049",
  "TotalReadoutTime": 0.0763001,
  "TxRefAmp": 252.882,
  "WipMemBlock": "96a1929f-2d38-4c4d-b63f-5a854d08cca5||Sequence: R016 ve11c/master r/e634e98; Dec 19 2017 11:11:25 by eja",
  "dcmmeta_affine": [
    [-2.0, 0.0, 0.0, 111.90650177001953],
    [0.0, 1.910556674003601, -0.59141606092453, -76.06163787841797],
    [0.0, 0.5914161205291748, 1.910556674003601, -61.281524658203125],
    [0.0, 0.0, 0.0, 1.0]
],
  "dcmmeta_reorient_transform": [
    [0.0, -1.0, 0.0, 109.0],
    [1.0, 0.0, 0.0, 0.0],
    [0.0, 0.0, 1.0, 0.0],
    [0.0, 0.0, 0.0, 1.0]
],
  "dcmmeta_shape": [110, 110, 57, 99],
  "dcmmeta_slice_dim": 2,
  "dcmmeta_version": 0.6,
  "global": {
    "const": {
      "AcquisitionMatrix": [110, 0, 0, 110],
      "AngioFlag": "N",
      "BitsAllocated": 16,
      "BitsStored": 16,
      "BodyPartExamined": "BRAIN",
      "CardiacNumberOfImages": 1,
      "Columns": 880,
      "EchoNumbers": 1,
      "EchoTime": 81.6,
      "EchoTrainLength": 83,
      "FlipAngle": 78.0,
      "HighBit": 15,
      "ImageOrientationPatient": [1.0, 0.0, 0.0, 0.0, 0.95527836252167, -0.295708048754],
      "ImagePositionPatient": [-881.90650236607, -867.75338415945, 230.8780282771],
      "ImageType": [
        "ORIGINAL",
        "PRIMARY",
        "DIFFUSION",
        "NONE",
        "MB",
        "ND",
        "MOSAIC"
],
      "ImagedNucleus": "1H",
      "ImagingFrequency": 123.259513,
      "InPlanePhaseEncodingDirection": "COL",
      "MRAcquisitionType": "2D",
      "MagneticFieldStrength": 3.0,
      "Manufacturer": "SIEMENS",
      "ManufacturerModelName": "Prisma_fit",
      "Modality": "MR",
      "NominalInterval": 0,
      "NumberOfAverages": 1.0,
      "NumberOfPhaseEncodingSteps": 83,
      "PercentPhaseFieldOfView": 100.0,
      "PercentSampling": 100.0,
      "PerformedProcedureStepStartTime": "151607.263000",
      "PhotometricInterpretation": "MONOCHROME2",
      "PixelBandwidth": 1685.0,
      "PixelRepresentation": 0,
      "PixelSpacing": [2.0, 2.0],
      "ProtocolName": "dMRI_dir98_PA_test_cmrr",
      "RepetitionTime": 2334.0,
      "Rows": 880,
      "SAR": 0.14941340655454,
      "SamplesPerPixel": 1,
      "ScanOptions": [
        "PFP",
        "EXT"
],
      "ScanningSequence": "EP",
      "SequenceVariant": [
        "SK",
        "SS"
],
      "SeriesDescription": "dMRI_dir98_PA_test_cmrr",
      "SeriesNumber": 11,
      "SeriesTime": "154658.249000",
      "SliceLocation": -36.048875234735,
      "SliceThickness": 2.0,
      "SmallestImagePixelValue": 0,
      "SoftwareVersions": "syngo MR E11",
      "SpacingBetweenSlices": 1.9999999342283,
      "SpecificCharacterSet": "ISO_IR 100",
      "StudyID": "1",
      "StudyTime": "151607.177000",
      "TransmitCoilName": "Body",
      "VariableFlipAngleFlag": "N",
      "WindowCenterWidthExplanation": "Algo1",
      "dBdt": 0.0},
    "slices": {}
  },
  "time": {
    "samples": {
      "AcquisitionNumber": [1, 2, 3, 4, 5, 6, 7, 8, 9, 10, 11, 12, 13, 14, 15, 16, 17, 18, 19, 20, 21, 22, 23, 24, 25, 26, 27, 28, 29, 30, 31, 32, 33, 34, 35, 36, 37, 38, 39, 40, 41, 42, 43, 44, 45, 46, 47, 48, 49, 50, 51, 52, 53, 54, 55, 56, 57, 58, 59, 60, 61, 62, 63, 64, 65, 66, 67, 68, 69, 70, 71, 72, 73, 74, 75, 76, 77, 78, 79, 80, 81, 82, 83, 84, 85, 86, 87, 88, 89, 90, 91, 92, 93, 94, 95, 96, 97, 98, 99],
      "AcquisitionTime": ["154551.445000", "154553.777500", "154556.112500", "154558.447500", "154600.780000", "154603.115000", "154605.447500", "154607.782500", "154610.117500", "154612.450000", "154614.785000", "154617.117500", "154619.452500", "154621.787500", "154624.120000", "154626.455000", "154628.787500", "154631.122500", "154633.457500", "154635.790000", "154638.125000", "154640.457500", "154642.792500", "154645.127500", "154647.460000", "154649.795000", "154652.127500", "154654.462500", "154656.797500", "154659.130000", "154701.465000", "154703.797500", "154706.132500", "154708.467500", "154710.800000", "154713.135000", "154715.467500", "154717.802500", "154720.137500", "154722.470000", "154724.805000", "154727.137500", "154729.472500", "154731.807500", "154734.140000", "154736.475000", "154738.807500", "154741.142500", "154743.477500", "154745.810000", "154748.145000", "154750.477500", "154752.812500", "154755.147500", "154757.480000", "154759.815000", "154802.147500", "154804.482500", "154806.817500", "154809.150000", "154811.485000", "154813.817500", "154816.152500", "154818.487500", "154820.820000", "154823.155000", "154825.487500", "154827.822500", "154830.157500", "154832.490000", "154834.825000", "154837.157500", "154839.492500", "154841.827500", "154844.160000", "154846.495000", "154848.827500", "154851.162500", "154853.497500", "154855.830000", "154858.165000", "154900.497500", "154902.832500", "154905.167500", "154907.500000", "154909.835000", "154912.167500", "154914.502500", "154916.837500", "154919.170000", "154921.505000", "154923.837500", "154926.172500", "154928.507500", "154930.840000", "154933.175000", "154935.507500", "154937.842500", "154940.177500"],
      "ContentTime": ["154658.252000", "154658.256000", "154658.260000", "154658.263000", "154658.266000", "154658.274000", "154658.277000", "154658.280000", "154658.283000", "154658.286000", "154658.289000", "154658.293000", "154658.296000", "154658.299000", "154658.302000", "154658.305000", "154658.308000", "154658.311000", "154658.314000", "154658.317000", "154658.320000", "154658.323000", "154658.326000", "154658.330000", "154658.333000", "154658.336000", "154658.339000", "154658.342000", "154758.216000", "154758.219000", "154758.226000", "154758.230000", "154758.233000", "154758.236000", "154758.239000", "154758.242000", "154758.245000", "154758.248000", "154758.251000", "154758.254000", "154758.257000", "154758.260000", "154758.263000", "154758.266000", "154758.270000", "154758.273000", "154758.276000", "154758.279000", "154758.282000", "154758.285000", "154758.288000", "154758.291000", "154758.294000", "154758.297000", "154818.216000", "154818.219000", "154818.222000", "154818.225000", "154818.228000", "154818.231000", "154818.234000", "154818.237000", "154918.217000", "154918.220000", "154918.223000", "154918.232000", "154918.235000", "154918.238000", "154918.241000", "154918.244000", "154918.247000", "154918.250000", "154918.253000", "154918.257000", "154918.260000", "154918.263000", "154918.266000", "154918.269000", "154918.272000", "154918.275000", "154918.278000", "154918.281000", "154918.285000", "154918.288000", "154918.291000", "154918.294000", "154918.297000", "154918.300000", "154944.800000", "154944.809000", "154944.812000", "154944.815000", "154944.818000", "154944.826000", "154944.829000", "154944.832000", "154944.835000", "154944.838000", "154944.841000"],
      "InstanceCreationTime": ["154658.252000", "154658.256000", "154658.260000", "154658.263000", "154658.266000", "154658.274000", "154658.277000", "154658.280000", "154658.283000", "154658.286000", "154658.289000", "154658.293000", "154658.296000", "154658.299000", "154658.302000", "154658.305000", "154658.308000", "154658.311000", "154658.314000", "154658.317000", "154658.320000", "154658.323000", "154658.326000", "154658.330000", "154658.333000", "154658.336000", "154658.339000", "154658.342000", "154758.216000", "154758.219000", "154758.226000", "154758.230000", "154758.233000", "154758.236000", "154758.239000", "154758.242000", "154758.245000", "154758.248000", "154758.251000", "154758.254000", "154758.257000", "154758.260000", "154758.263000", "154758.266000", "154758.270000", "154758.273000", "154758.276000", "154758.279000", "154758.282000", "154758.285000", "154758.288000", "154758.291000", "154758.294000", "154758.297000", "154818.216000", "154818.219000", "154818.222000", "154818.225000", "154818.228000", "154818.231000", "154818.234000", "154818.237000", "154918.217000", "154918.220000", "154918.223000", "154918.232000", "154918.235000", "154918.238000", "154918.241000", "154918.244000", "154918.247000", "154918.250000", "154918.253000", "154918.257000", "154918.260000", "154918.263000", "154918.266000", "154918.269000", "154918.272000", "154918.275000", "154918.278000", "154918.281000", "154918.285000", "154918.288000", "154918.291000", "154918.294000", "154918.297000", "154918.300000", "154944.800000", "154944.809000", "154944.812000", "154944.815000", "154944.818000", "154944.826000", "154944.829000", "154944.832000", "154944.835000", "154944.838000", "154944.841000"],
      "InstanceNumber": [1, 2, 3, 4, 5, 6, 7, 8, 9, 10, 11, 12, 13, 14, 15, 16, 17, 18, 19, 20, 21, 22, 23, 24, 25, 26, 27, 28, 29, 30, 31, 32, 33, 34, 35, 36, 37, 38, 39, 40, 41, 42, 43, 44, 45, 46, 47, 48, 49, 50, 51, 52, 53, 54, 55, 56, 57, 58, 59, 60, 61, 62, 63, 64, 65, 66, 67, 68, 69, 70, 71, 72, 73, 74, 75, 76, 77, 78, 79, 80, 81, 82, 83, 84, 85, 86, 87, 88, 89, 90, 91, 92, 93, 94, 95, 96, 97, 98, 99],
      "LargestImagePixelValue": [57588, 56545, 19408, 8781, 18142, 12426, 18487, 8693, 18408, 9509, 19365, 8490, 19328, 9187, 17003, 10839, 17781, 57573, 10039, 18831, 7588, 18433, 9647, 18902, 8963, 18005, 11544, 19633, 10759, 17062, 8894, 18529, 10589, 55054, 20757, 9077, 17928, 12850, 17862, 8580, 20043, 7721, 19462, 10418, 18442, 9170, 18974, 9646, 19001, 53537, 12379, 18824, 8290, 19119, 9083, 17874, 9054, 19758, 7675, 18077, 10579, 16678, 9572, 17019, 8495, 54540, 20550, 9446, 17642, 8514, 21188, 11371, 17165, 11014, 19762, 9681, 18523, 8554, 18636, 8237, 17920, 65535, 11056, 18791, 9217, 19051, 9063, 17644, 7642, 20213, 13153, 18789, 8137, 18157, 9691, 17114, 11179, 17755, 10645],
      "SequenceName": [
 "ep_b5#1",
 "ep_b5#1",
 "ep_b1490#2",
 "ep_b2990#3",
 "ep_b1495#4",
 "ep_b3005#5",
 "ep_b1500#6",
 "ep_b2985#7",
 "ep_b1495#8",
 "ep_b3005#9",
 "ep_b1490#10",
 "ep_b2995#11",
 "ep_b1490#12",
 "ep_b2990#13",
 "ep_b1500#14",
 "ep_b2985#15",
 "ep_b1500#16",
 "ep_b5#17",
 "ep_b3005#18",
 "ep_b1490#19",
 "ep_b2995#20",
 "ep_b1500#21",
 "ep_b3000#22",
 "ep_b1495#23",
 "ep_b3000#24",
 "ep_b1490#25",
 "ep_b2985#26",
 "ep_b1505#27",
 "ep_b2990#28",
 "ep_b1500#29",
 "ep_b3000#30",
 "ep_b1490#31",
 "ep_b3000#32",
 "ep_b5#33",
 "ep_b1505#34",
 "ep_b3000#35",
 "ep_b1495#36",
 "ep_b2985#37",
 "ep_b1495#38",
 "ep_b2995#39",
 "ep_b1500#40",
 "ep_b2995#41",
 "ep_b1500#42",
 "ep_b2990#43",
 "ep_b1495#44",
 "ep_b3000#45",
 "ep_b1495#46",
 "ep_b3000#47",
 "ep_b1490#48",
 "ep_b5#49",
 "ep_b3000#50",
 "ep_b1500#51",
 "ep_b2990#52",
 "ep_b1505#53",
 "ep_b2995#54",
 "ep_b1495#55",
 "ep_b2990#56",
 "ep_b1490#57",
 "ep_b2995#58",
 "ep_b1500#59",
 "ep_b3000#60",
 "ep_b1500#61",
 "ep_b2985#62",
 "ep_b1500#63",
 "ep_b2990#64",
 "ep_b5#65",
 "ep_b1505#66",
 "ep_b3005#67",
 "ep_b1495#68",
 "ep_b3000#69",
 "ep_b1505#70",
 "ep_b3005#71",
 "ep_b1500#72",
 "ep_b3005#73",
 "ep_b1495#74",
 "ep_b2995#75",
 "ep_b1495#76",
 "ep_b2995#77",
 "ep_b1500#78",
 "ep_b3000#79",
 "ep_b1490#80",
 "ep_b5#81",
 "ep_b2990#82",
 "ep_b1500#83",
 "ep_b2985#84",
 "ep_b1495#85",
 "ep_b2995#86",
 "ep_b1495#87",
 "ep_b2995#88",
 "ep_b1490#89",
 "ep_b2985#90",
 "ep_b1500#91",
 "ep_b3000#92",
 "ep_b1490#93",
 "ep_b3005#94",
 "ep_b1495#95",
 "ep_b2990#96",
 "ep_b1500#97",
 "ep_b3000#98"
],
      "TriggerTime": [13300.0, 15632.5, 17967.5, 20300.0, 22635.0, 24970.0, 27302.5, 29637.5, 31970.0, 34305.0, 36640.0, 38972.5, 41307.5, 43640.0, 45975.0, 48310.0, 50642.5, 52977.5, 55310.0, 57645.0, 59980.0, 62312.5, 64647.5, 66980.0, 69315.0, 71650.0, 73982.5, 76317.5, 78650.0, 80985.0, 83320.0, 85652.5, 87987.5, 90320.0, 92655.0, 94990.0, 97322.5, 99657.5, 101990.0, 104325.0, 106660.0, 108992.5, 111327.5, 113660.0, 115995.0, 118330.0, 120662.5, 122997.5, 125330.0, 127665.0, 130000.0, 132332.5, 134667.5, 137000.0, 139335.0, 141670.0, 144002.5, 146337.5, 148670.0, 151005.0, 153340.0, 155672.5, 158007.5, 160340.0, 162675.0, 165010.0, 167342.5, 169677.5, 172010.0, 174345.0, 176680.0, 179012.5, 181347.5, 183680.0, 186015.0, 188350.0, 190682.5, 193017.5, 195350.0, 197685.0, 200020.0, 202352.5, 204687.5, 207020.0, 209355.0, 211690.0, 214022.5, 216357.5, 218690.0, 221025.0, 223360.0, 225692.5, 228027.5, 230360.0, 232695.0, 235030.0, 237362.5, 239697.5, 242030.0],
      "WindowCenter": [7099.0, 7080.0, 2808.0, 1681.0, 2780.0, 1780.0, 2819.0, 1656.0, 2779.0, 1666.0, 2809.0, 1697.0, 2834.0, 1705.0, 2746.0, 1699.0, 2753.0, 7038.0, 1706.0, 2819.0, 1640.0, 2820.0, 1702.0, 2779.0, 1715.0, 2779.0, 1705.0, 2811.0, 1692.0, 2763.0, 1628.0, 2761.0, 1735.0, 7003.0, 2825.0, 1667.0, 2780.0, 1766.0, 2804.0, 1719.0, 2853.0, 1624.0, 2797.0, 1761.0, 2796.0, 1675.0, 2807.0, 1672.0, 2789.0, 6980.0, 1775.0, 2827.0, 1686.0, 2781.0, 1658.0, 2748.0, 1716.0, 2835.0, 1610.0, 2745.0, 1678.0, 2737.0, 1688.0, 2808.0, 1687.0, 7003.0, 2825.0, 1703.0, 2763.0, 1690.0, 2840.0, 1746.0, 2770.0, 1695.0, 2781.0, 1667.0, 2801.0, 1725.0, 2793.0, 1611.0, 2786.0, 7044.0, 1747.0, 2767.0, 1666.0, 2818.0, 1671.0, 2752.0, 1667.0, 2788.0, 1762.0, 2768.0, 1685.0, 2822.0, 1670.0, 2776.0, 1695.0, 2739.0, 1743.0],
      "WindowWidth": [15582.0, 15549.0, 6760.0, 4300.0, 6697.0, 4547.0, 6729.0, 4263.0, 6699.0, 4274.0, 6769.0, 4346.0, 6802.0, 4376.0, 6605.0, 4357.0, 6653.0, 15437.0, 4381.0, 6773.0, 4211.0, 6769.0, 4373.0, 6699.0, 4387.0, 6696.0, 4349.0, 6813.0, 4327.0, 6652.0, 4202.0, 6676.0, 4450.0, 15387.0, 6805.0, 4278.0, 6703.0, 4479.0, 6725.0, 4370.0, 6864.0, 4191.0, 6706.0, 4495.0, 6735.0, 4276.0, 6752.0, 4303.0, 6742.0, 15328.0, 4525.0, 6774.0, 4321.0, 6710.0, 4270.0, 6621.0, 4395.0, 6812.0, 4155.0, 6637.0, 4302.0, 6608.0, 4337.0, 6711.0, 4325.0, 15384.0, 6812.0, 4373.0, 6655.0, 4305.0, 6849.0, 4469.0, 6651.0, 4334.0, 6710.0, 4277.0, 6747.0, 4397.0, 6724.0, 4155.0, 6688.0, 15420.0, 4472.0, 6680.0, 4268.0, 6790.0, 4299.0, 6643.0, 4273.0, 6707.0, 4470.0, 6687.0, 4318.0, 6764.0, 4294.0, 6671.0, 4339.0, 6615.0, 4482.0]
    },
    "slices": {}
  }
}