{
  "AcquisitionMatrixPE": 110,
  "AcquisitionNumber": 1,
  "AcquisitionTime": "09:45:54.907500",
  "BandwidthPerPixelPhaseEncode": 12.987,
  "BaseResolution": 110,
  "BodyPartExamined": "BRAIN",
  "CoilCombinationMethod": "Sum of Squares",
  "ConsistencyInfo": "N4_VE11C_LATEST_20160120",
  "ConversionSoftware": "dcm2niix",
  "ConversionSoftwareVersion": "v1.0.20211006",
  "DerivedVendorReportedEchoSpacing": 0.000700001,
  "DeviceSerialNumber": "167006",
  "DiffusionScheme": "Monopolar",
  "DwellTime": 2.7e-06,
  "EchoTime": 0.0816,
  "EchoTrainLength": 83,
  "EffectiveEchoSpacing": 0.000700001,
  "FlipAngle": 78,
  "HeudiconvVersion": "0.5.3.post569+g418601f",
  "ImageComments": "Unaliased MB3/PE3/LB SENSE1",
  "ImageOrientationPatientDICOM": [1, 0, 0, 0, 0.984808, -0.173648],
  "ImageOrientationText": "Tra>Cor(-10.0)",
  "ImageType": [
    "ORIGINAL",
    "PRIMARY",
    "DIFFUSION",
    "NONE",
    "MB",
    "ND",
    "MOSAIC"
],
  "ImagingFrequency": 123.259,
  "InPlanePhaseEncodingDirectionDICOM": "COL",
  "InstitutionAddress": "Chemin Queen-Mary 4565,Montreal,District,CA,H3W 1W5",
  "InstitutionName": "IUGM",
  "InstitutionalDepartmentName": "Department",
  "MRAcquisitionType": "2D",
  "MagneticFieldStrength": 3,
  "Manufacturer": "Siemens",
  "ManufacturersModelName": "Prisma_fit",
  "MatrixCoilMode": "SENSE",
  "Modality": "MR",
  "MultibandAccelerationFactor": 3,
  "PartialFourier": 0.75,
  "PatientPosition": "HFS",
  "PercentPhaseFOV": 100,
  "PercentSampling": 100,
  "PhaseEncodingDirection": "j",
  "PhaseEncodingSteps": 83,
  "PhaseResolution": 1,
  "PixelBandwidth": 1685,
  "ProcedureStepDescription": "anat^generic",
  "ProtocolName": "dMRI_dir98_PA_test_cmrr",
  "PulseSequenceDetails": "%CustomerSeq%\\cmrr_mbep2d_diff",
  "ReceiveCoilActiveElements": "HC1-6",
  "ReceiveCoilName": "HeadNeck_64",
  "ReconMatrixPE": 110,
  "RepetitionTime": 2.334,
  "SAR": 0.151435,
  "ScanOptions": "PFP\\EXT",
  "ScanningSequence": "EP",
  "SequenceName": "ep_b5#1",
  "SequenceVariant": "SK\\SS",
  "SeriesDescription": "dMRI_dir98_PA_test_cmrr",
  "SeriesNumber": 11,
  "ShimSetting": [638, -7215, -8835, 613, 80, -3, 58, -6],
  "SliceThickness": 2,
  "SliceTiming": [0, 1.2175, 0.1225, 1.34, 0.2425, 1.46, 0.365, 1.5825, 0.4875, 1.705, 0.6075, 1.8275, 0.73, 1.9475, 0.8525, 2.07, 0.975, 2.1925, 1.095, 0, 1.2175, 0.1225, 1.34, 0.2425, 1.46, 0.365, 1.5825, 0.4875, 1.705, 0.6075, 1.8275, 0.73, 1.9475, 0.8525, 2.07, 0.975, 2.1925, 1.095, 0, 1.2175, 0.1225, 1.34, 0.2425, 1.46, 0.365, 1.5825, 0.4875, 1.705, 0.6075, 1.8275, 0.73, 1.9475, 0.8525, 2.07, 0.975, 2.1925, 1.095],
  "SoftwareVersions": "syngo MR E11",
  "SpacingBetweenSlices": 2,
  "StationName": "MRC35049",
  "TotalReadoutTime": 0.0763001,
  "TxRefAmp": 248.579,
  "WipMemBlock": "479759c1-c055-48b5-b068-58739fc05b37||Sequence: R016 ve11c/master r/e634e98; Dec 19 2017 11:11:25 by eja",
  "dcmmeta_affine": [
    [-2.0, 0.0, 0.0, 109.49686431884766],
    [0.0, 1.9696154594421387, -0.3472963571548462, -85.89308166503906],
    [0.0, 0.3472963571548462, 1.9696155786514282, -44.141117095947266],
    [0.0, 0.0, 0.0, 1.0]
],
  "dcmmeta_reorient_transform": [
    [0.0, -1.0, 0.0, 109.0],
    [1.0, 0.0, 0.0, 0.0],
    [0.0, 0.0, 1.0, 0.0],
    [0.0, 0.0, 0.0, 1.0]
],
  "dcmmeta_shape": [110, 110, 57, 99],
  "dcmmeta_slice_dim": 2,
  "dcmmeta_version": 0.6,
  "global": {
    "const": {
      "AcquisitionMatrix": [110, 0, 0, 110],
      "AngioFlag": "N",
      "BitsAllocated": 16,
      "BitsStored": 16,
      "BodyPartExamined": "BRAIN",
      "CardiacNumberOfImages": 1,
      "Columns": 880,
      "EchoNumbers": 1,
      "EchoTime": 81.6,
      "EchoTrainLength": 83,
      "FlipAngle": 78.0,
      "HighBit": 15,
      "ImageOrientationPatient": [1.0, 0.0, 0.0, 0.0, 0.98480775371103, -0.1736481737037],
      "ImagePositionPatient": [-879.49686384201, -887.09697927157, 127.42327738075],
      "ImageType": [
        "ORIGINAL",
        "PRIMARY",
        "DIFFUSION",
        "NONE",
        "MB",
        "ND",
        "MOSAIC"
],
      "ImagedNucleus": "1H",
      "ImagingFrequency": 123.259011,
      "InPlanePhaseEncodingDirection": "COL",
      "MRAcquisitionType": "2D",
      "MagneticFieldStrength": 3.0,
      "Manufacturer": "SIEMENS",
      "ManufacturerModelName": "Prisma_fit",
      "Modality": "MR",
      "NominalInterval": 0,
      "NumberOfAverages": 1.0,
      "NumberOfPhaseEncodingSteps": 83,
      "PercentPhaseFieldOfView": 100.0,
      "PercentSampling": 100.0,
      "PerformedProcedureStepStartTime": "090505.605000",
      "PhotometricInterpretation": "MONOCHROME2",
      "PixelBandwidth": 1685.0,
      "PixelRepresentation": 0,
      "PixelSpacing": [2.0, 2.0],
      "ProtocolName": "dMRI_dir98_PA_test_cmrr",
      "RepetitionTime": 2334.0,
      "Rows": 880,
      "SAR": 0.15143492436667,
      "SamplesPerPixel": 1,
      "ScanOptions": [
        "PFP",
        "EXT"
],
      "ScanningSequence": "EP",
      "SequenceVariant": [
        "SK",
        "SS"
],
      "SeriesDescription": "dMRI_dir98_PA_test_cmrr",
      "SeriesNumber": 11,
      "SeriesTime": "094657.229000",
      "SliceLocation": -28.555338780752,
      "SliceThickness": 2.0,
      "SmallestImagePixelValue": 0,
      "SoftwareVersions": "syngo MR E11",
      "SpacingBetweenSlices": 2.0000000215263,
      "SpecificCharacterSet": "ISO_IR 100",
      "StudyID": "1",
      "StudyTime": "090505.476000",
      "TransmitCoilName": "Body",
      "VariableFlipAngleFlag": "N",
      "WindowCenterWidthExplanation": "Algo1",
      "dBdt": 0.0},
    "slices": {}
  },
  "time": {
    "samples": {
      "AcquisitionNumber": [1, 2, 3, 4, 5, 6, 7, 8, 9, 10, 11, 12, 13, 14, 15, 16, 17, 18, 19, 20, 21, 22, 23, 24, 25, 26, 27, 28, 29, 30, 31, 32, 33, 34, 35, 36, 37, 38, 39, 40, 41, 42, 43, 44, 45, 46, 47, 48, 49, 50, 51, 52, 53, 54, 55, 56, 57, 58, 59, 60, 61, 62, 63, 64, 65, 66, 67, 68, 69, 70, 71, 72, 73, 74, 75, 76, 77, 78, 79, 80, 81, 82, 83, 84, 85, 86, 87, 88, 89, 90, 91, 92, 93, 94, 95, 96, 97, 98, 99],
      "AcquisitionTime": ["094554.907500", "094557.242500", "094559.575000", "094601.910000", "094604.242500", "094606.577500", "094608.912500", "094611.245000", "094613.580000", "094615.912500", "094618.247500", "094620.582500", "094622.915000", "094625.250000", "094627.582500", "094629.917500", "094632.252500", "094634.585000", "094636.920000", "094639.252500", "094641.587500", "094643.922500", "094646.255000", "094648.590000", "094650.922500", "094653.257500", "094655.592500", "094657.925000", "094700.260000", "094702.592500", "094704.927500", "094707.262500", "094709.595000", "094711.930000", "094714.262500", "094716.597500", "094718.932500", "094721.265000", "094723.600000", "094725.932500", "094728.267500", "094730.602500", "094732.935000", "094735.270000", "094737.602500", "094739.937500", "094742.272500", "094744.605000", "094746.940000", "094749.272500", "094751.607500", "094753.942500", "094756.275000", "094758.610000", "094800.942500", "094803.277500", "094805.612500", "094807.945000", "094810.280000", "094812.612500", "094814.947500", "094817.282500", "094819.615000", "094821.950000", "094824.282500", "094826.617500", "094828.952500", "094831.285000", "094833.620000", "094835.952500", "094838.287500", "094840.622500", "094842.955000", "094845.290000", "094847.622500", "094849.957500", "094852.292500", "094854.625000", "094856.960000", "094859.292500", "094901.627500", "094903.962500", "094906.295000", "094908.630000", "094910.962500", "094913.297500", "094915.632500", "094917.965000", "094920.300000", "094922.632500", "094924.967500", "094927.302500", "094929.635000", "094931.970000", "094934.302500", "094936.637500", "094938.972500", "094941.305000", "094943.640000"],
      "ContentTime": ["094657.232000", "094657.255000", "094657.259000", "094657.262000", "094657.265000", "094657.268000", "094657.271000", "094657.274000", "094657.277000", "094657.280000", "094657.283000", "094657.286000", "094657.289000", "094657.292000", "094657.295000", "094657.298000", "094657.301000", "094657.304000", "094657.307000", "094657.310000", "094657.313000", "094657.316000", "094657.319000", "094657.322000", "094657.325000", "094657.328000", "094757.200000", "094757.211000", "094757.215000", "094757.218000", "094757.221000", "094757.224000", "094757.227000", "094757.231000", "094757.234000", "094757.237000", "094757.240000", "094757.243000", "094757.246000", "094757.250000", "094757.253000", "094757.256000", "094757.259000", "094757.263000", "094757.266000", "094757.270000", "094757.273000", "094757.276000", "094757.279000", "094757.283000", "094757.286000", "094857.199000", "094857.202000", "094857.205000", "094857.208000", "094857.212000", "094857.215000", "094857.218000", "094857.221000", "094857.224000", "094857.227000", "094857.230000", "094857.233000", "094857.236000", "094857.239000", "094857.242000", "094857.262000", "094857.266000", "094857.269000", "094857.272000", "094857.275000", "094857.278000", "094857.281000", "094857.284000", "094857.287000", "094857.290000", "094857.293000", "094948.906000", "094948.909000", "094948.912000", "094948.915000", "094948.924000", "094948.927000", "094948.930000", "094948.933000", "094948.941000", "094948.944000", "094948.947000", "094948.950000", "094948.953000", "094948.956000", "094948.959000", "094948.962000", "094948.965000", "094948.968000", "094948.971000", "094948.974000", "094948.977000", "094948.980000"],
      "InstanceCreationTime": ["094657.232000", "094657.255000", "094657.259000", "094657.262000", "094657.265000", "094657.268000", "094657.271000", "094657.274000", "094657.277000", "094657.280000", "094657.283000", "094657.286000", "094657.289000", "094657.292000", "094657.295000", "094657.298000", "094657.301000", "094657.304000", "094657.307000", "094657.310000", "094657.313000", "094657.316000", "094657.319000", "094657.322000", "094657.325000", "094657.328000", "094757.200000", "094757.211000", "094757.215000", "094757.218000", "094757.221000", "094757.224000", "094757.227000", "094757.231000", "094757.234000", "094757.237000", "094757.240000", "094757.243000", "094757.246000", "094757.250000", "094757.253000", "094757.256000", "094757.259000", "094757.263000", "094757.266000", "094757.270000", "094757.273000", "094757.276000", "094757.279000", "094757.283000", "094757.286000", "094857.199000", "094857.202000", "094857.205000", "094857.208000", "094857.212000", "094857.215000", "094857.218000", "094857.221000", "094857.224000", "094857.227000", "094857.230000", "094857.233000", "094857.236000", "094857.239000", "094857.242000", "094857.262000", "094857.266000", "094857.269000", "094857.272000", "094857.275000", "094857.278000", "094857.281000", "094857.284000", "094857.287000", "094857.290000", "094857.293000", "094948.906000", "094948.909000", "094948.912000", "094948.915000", "094948.924000", "094948.927000", "094948.930000", "094948.933000", "094948.941000", "094948.944000", "094948.947000", "094948.950000", "094948.953000", "094948.956000", "094948.959000", "094948.962000", "094948.965000", "094948.968000", "094948.971000", "094948.974000", "094948.977000", "094948.980000"],
      "InstanceNumber": [1, 2, 3, 4, 5, 6, 7, 8, 9, 10, 11, 12, 13, 14, 15, 16, 17, 18, 19, 20, 21, 22, 23, 24, 25, 26, 27, 28, 29, 30, 31, 32, 33, 34, 35, 36, 37, 38, 39, 40, 41, 42, 43, 44, 45, 46, 47, 48, 49, 50, 51, 52, 53, 54, 55, 56, 57, 58, 59, 60, 61, 62, 63, 64, 65, 66, 67, 68, 69, 70, 71, 72, 73, 74, 75, 76, 77, 78, 79, 80, 81, 82, 83, 84, 85, 86, 87, 88, 89, 90, 91, 92, 93, 94, 95, 96, 97, 98, 99],
      "LargestImagePixelValue": [58609, 59360, 18961, 8904, 20297, 11045, 17692, 8727, 18579, 8882, 21375, 9457, 19302, 8297, 16370, 10732, 18987, 58836, 8502, 17709, 6993, 18543, 8963, 18411, 8364, 18936, 11424, 20150, 7946, 18595, 6933, 19181, 11326, 58825, 19282, 8151, 17155, 10772, 18522, 8777, 19957, 8360, 18667, 9768, 19145, 8534, 18805, 7874, 22163, 56908, 12336, 19364, 8039, 18930, 7756, 17973, 9407, 20756, 6718, 18711, 9737, 17441, 10399, 18160, 9011, 56178, 20113, 8547, 18372, 8523, 20077, 11119, 16865, 10264, 21671, 7402, 18920, 8834, 19534, 6598, 19010, 56842, 11647, 18456, 9780, 19320, 8142, 17602, 7828, 19007, 11528, 18784, 8352, 19100, 7759, 18012, 7930, 17453, 10351],
      "SequenceName": [
 "ep_b5#1",
 "ep_b5#1",
 "ep_b1490#2",
 "ep_b2990#3",
 "ep_b1495#4",
 "ep_b3005#5",
 "ep_b1500#6",
 "ep_b2990#7",
 "ep_b1495#8",
 "ep_b3005#9",
 "ep_b1490#10",
 "ep_b2995#11",
 "ep_b1490#12",
 "ep_b2990#13",
 "ep_b1500#14",
 "ep_b2985#15",
 "ep_b1500#16",
 "ep_b5#17",
 "ep_b3005#18",
 "ep_b1490#19",
 "ep_b2995#20",
 "ep_b1500#21",
 "ep_b3000#22",
 "ep_b1495#23",
 "ep_b3005#24",
 "ep_b1495#25",
 "ep_b2985#26",
 "ep_b1505#27",
 "ep_b2995#28",
 "ep_b1500#29",
 "ep_b3000#30",
 "ep_b1490#31",
 "ep_b3000#32",
 "ep_b5#33",
 "ep_b1505#34",
 "ep_b3000#35",
 "ep_b1495#36",
 "ep_b2985#37",
 "ep_b1495#38",
 "ep_b2995#39",
 "ep_b1500#40",
 "ep_b2995#41",
 "ep_b1500#42",
 "ep_b2990#43",
 "ep_b1495#44",
 "ep_b2995#45",
 "ep_b1495#46",
 "ep_b3000#47",
 "ep_b1490#48",
 "ep_b5#49",
 "ep_b3005#50",
 "ep_b1500#51",
 "ep_b2990#52",
 "ep_b1505#53",
 "ep_b2995#54",
 "ep_b1495#55",
 "ep_b2990#56",
 "ep_b1490#57",
 "ep_b2995#58",
 "ep_b1500#59",
 "ep_b3000#60",
 "ep_b1500#61",
 "ep_b2985#62",
 "ep_b1500#63",
 "ep_b2990#64",
 "ep_b5#65",
 "ep_b1505#66",
 "ep_b3005#67",
 "ep_b1495#68",
 "ep_b3000#69",
 "ep_b1505#70",
 "ep_b3005#71",
 "ep_b1500#72",
 "ep_b3000#73",
 "ep_b1495#74",
 "ep_b2995#75",
 "ep_b1495#76",
 "ep_b2995#77",
 "ep_b1500#78",
 "ep_b3000#79",
 "ep_b1495#80",
 "ep_b5#81",
 "ep_b2990#82",
 "ep_b1500#83",
 "ep_b2985#84",
 "ep_b1495#85",
 "ep_b2995#86",
 "ep_b1495#87",
 "ep_b2995#88",
 "ep_b1490#89",
 "ep_b2985#90",
 "ep_b1500#91",
 "ep_b3000#92",
 "ep_b1490#93",
 "ep_b3005#94",
 "ep_b1495#95",
 "ep_b2990#96",
 "ep_b1500#97",
 "ep_b3000#98"
],
      "TriggerTime": [13297.5, 15630.0, 17965.0, 20300.0, 22632.5, 24967.5, 27300.0, 29635.0, 31970.0, 34302.5, 36637.5, 38970.0, 41305.0, 43640.0, 45972.5, 48307.5, 50640.0, 52975.0, 55310.0, 57642.5, 59977.5, 62310.0, 64645.0, 66980.0, 69312.5, 71647.5, 73980.0, 76315.0, 78650.0, 80982.5, 83317.5, 85650.0, 87985.0, 90320.0, 92652.5, 94987.5, 97320.0, 99655.0, 101990.0, 104322.5, 106657.5, 108990.0, 111325.0, 113660.0, 115992.5, 118327.5, 120660.0, 122995.0, 125330.0, 127662.5, 129997.5, 132330.0, 134665.0, 137000.0, 139332.5, 141667.5, 144000.0, 146335.0, 148670.0, 151002.5, 153337.5, 155670.0, 158005.0, 160340.0, 162672.5, 165007.5, 167340.0, 169675.0, 172010.0, 174342.5, 176677.5, 179010.0, 181345.0, 183680.0, 186012.5, 188347.5, 190680.0, 193015.0, 195350.0, 197682.5, 200017.5, 202350.0, 204685.0, 207020.0, 209352.5, 211687.5, 214020.0, 216355.0, 218690.0, 221022.5, 223357.5, 225690.0, 228025.0, 230360.0, 232692.5, 235027.5, 237360.0, 239695.0, 242030.0],
      "WindowCenter": [7162.0, 7192.0, 2814.0, 1706.0, 2813.0, 1751.0, 2814.0, 1687.0, 2802.0, 1640.0, 2822.0, 1729.0, 2836.0, 1691.0, 2760.0, 1705.0, 2762.0, 7077.0, 1665.0, 2821.0, 1622.0, 2840.0, 1701.0, 2812.0, 1708.0, 2790.0, 1704.0, 2802.0, 1646.0, 2785.0, 1589.0, 2790.0, 1763.0, 7069.0, 2794.0, 1640.0, 2788.0, 1712.0, 2808.0, 1721.0, 2855.0, 1681.0, 2757.0, 1751.0, 2831.0, 1649.0, 2823.0, 1659.0, 2825.0, 7061.0, 1753.0, 2860.0, 1683.0, 2757.0, 1648.0, 2769.0, 1718.0, 2848.0, 1584.0, 2785.0, 1659.0, 2750.0, 1698.0, 2813.0, 1699.0, 7069.0, 2798.0, 1693.0, 2774.0, 1675.0, 2841.0, 1739.0, 2784.0, 1662.0, 2819.0, 1631.0, 2806.0, 1725.0, 2818.0, 1585.0, 2799.0, 7004.0, 1761.0, 2776.0, 1686.0, 2804.0, 1677.0, 2787.0, 1671.0, 2769.0, 1709.0, 2799.0, 1710.0, 2821.0, 1634.0, 2783.0, 1630.0, 2726.0, 1736.0],
      "WindowWidth": [15649.0, 15696.0, 6755.0, 4342.0, 6712.0, 4486.0, 6710.0, 4321.0, 6693.0, 4214.0, 6769.0, 4410.0, 6790.0, 4341.0, 6607.0, 4341.0, 6620.0, 15467.0, 4295.0, 6756.0, 4167.0, 6787.0, 4360.0, 6708.0, 4380.0, 6686.0, 4332.0, 6761.0, 4237.0, 6668.0, 4115.0, 6673.0, 4495.0, 15445.0, 6742.0, 4212.0, 6682.0, 4369.0, 6712.0, 4368.0, 6856.0, 4297.0, 6613.0, 4473.0, 6759.0, 4223.0, 6748.0, 4267.0, 6770.0, 15415.0, 4459.0, 6824.0, 4306.0, 6644.0, 4245.0, 6626.0, 4395.0, 6816.0, 4096.0, 6655.0, 4242.0, 6603.0, 4344.0, 6703.0, 4341.0, 15453.0, 6739.0, 4351.0, 6646.0, 4266.0, 6825.0, 4433.0, 6646.0, 4250.0, 6742.0, 4206.0, 6718.0, 4397.0, 6747.0, 4096.0, 6697.0, 15314.0, 4488.0, 6654.0, 4293.0, 6749.0, 4308.0, 6673.0, 4286.0, 6657.0, 4363.0, 6695.0, 4360.0, 6740.0, 4218.0, 6648.0, 4205.0, 6562.0, 4445.0]
    },
    "slices": {}
  }
}