{
  "AcquisitionMatrixPE": 110,
  "AcquisitionNumber": 1,
  "AcquisitionTime": "13:22:42.707500",
  "BandwidthPerPixelPhaseEncode": 12.987,
  "BaseResolution": 110,
  "BodyPartExamined": "BRAIN",
  "ConsistencyInfo": "N4_VE11C_LATEST_20160120",
  "ConversionSoftware": "dcm2niix",
  "ConversionSoftwareVersion": "v1.0.20190902",
  "DerivedVendorReportedEchoSpacing": 0.000700001,
  "DeviceSerialNumber": "167006",
  "DiffusionScheme": "Monopolar",
  "DwellTime": 2.7e-06,
  "EchoTime": 0.0816,
  "EchoTrainLength": 83,
  "EffectiveEchoSpacing": 0.000700001,
  "FlipAngle": 78,
  "ImageComments": "Unaliased_MB3_PE3_LB_SENSE1",
  "ImageOrientationPatientDICOM": [1, 0, 0, 0, 0.965016, -0.262189],
  "ImageType": [
    "ORIGINAL",
    "PRIMARY",
    "DIFFUSION",
    "NONE",
    "MB",
    "ND",
    "MOSAIC"
],
  "ImagingFrequency": 123.259,
  "InPlanePhaseEncodingDirectionDICOM": "COL",
  "InstitutionAddress": "Chemin_Queen-Mary_4565_Montreal_District_CA_H3W_1W5",
  "InstitutionName": "IUGM",
  "InstitutionalDepartmentName": "Department",
  "MRAcquisitionType": "2D",
  "MagneticFieldStrength": 3,
  "Manufacturer": "Siemens",
  "ManufacturersModelName": "Prisma_fit",
  "Modality": "MR",
  "MultibandAccelerationFactor": 3,
  "PartialFourier": 0.75,
  "PatientPosition": "HFS",
  "PercentPhaseFOV": 100,
  "PhaseEncodingDirection": "j-",
  "PhaseEncodingSteps": 83,
  "PhaseResolution": 1,
  "PixelBandwidth": 1685,
  "ProcedureStepDescription": "hcptrt_generic",
  "ProtocolName": "dMRI_dir98_AP_test_cmrr",
  "PulseSequenceDetails": "%CustomerSeq%_cmrr_mbep2d_diff",
  "ReceiveCoilActiveElements": "HC1-6",
  "ReceiveCoilName": "HeadNeck_64",
  "ReconMatrixPE": 110,
  "RepetitionTime": 2.334,
  "SAR": 0.110735,
  "ScanOptions": "PFP_EXT",
  "ScanningSequence": "EP",
  "SequenceName": "ep_b5#1",
  "SequenceVariant": "SK_SS",
  "SeriesDescription": "dMRI_dir98_AP_test_cmrr",
  "SeriesNumber": 7,
  "ShimSetting": [620, -7224, -8805, 643, 22, 21, 92, -9],
  "SliceThickness": 2,
  "SliceTiming": [0, 1.2175, 0.12, 1.3375, 0.2425, 1.46, 0.365, 1.5825, 0.4875, 1.705, 0.6075, 1.825, 0.73, 1.9475, 0.8525, 2.07, 0.9725, 2.19, 1.095, 0, 1.2175, 0.12, 1.3375, 0.2425, 1.46, 0.365, 1.5825, 0.4875, 1.705, 0.6075, 1.825, 0.73, 1.9475, 0.8525, 2.07, 0.9725, 2.19, 1.095, 0, 1.2175, 0.12, 1.3375, 0.2425, 1.46, 0.365, 1.5825, 0.4875, 1.705, 0.6075, 1.825, 0.73, 1.9475, 0.8525, 2.07, 0.9725, 2.19, 1.095],
  "SoftwareVersions": "syngo_MR_E11",
  "SpacingBetweenSlices": 2,
  "StationName": "MRC35049",
  "TotalReadoutTime": 0.0763001,
  "TxRefAmp": 209.815,
  "WipMemBlock": "b1dd1e0b-7390-4462-ab42-cd084199ce33||Sequence: R016 ve11c/master r/e634e98; Dec 19 2017 11:11:25 by eja",
  "dcmmeta_affine": [
    [-2.0, 0.0, 0.0, 109.49686431884766],
    [0.0, 1.9300329685211182, -0.5243783593177795, -84.38800048828125],
    [0.0, 0.5243783593177795, 1.9300330877304077, -57.00200271606445],
    [0.0, 0.0, 0.0, 1.0]
],
  "dcmmeta_reorient_transform": [
    [0.0, -1.0, 0.0, 109.0],
    [1.0, 0.0, 0.0, 0.0],
    [0.0, 0.0, 1.0, 0.0],
    [0.0, 0.0, 0.0, 1.0]
],
  "dcmmeta_shape": [110, 110, 57, 99],
  "dcmmeta_slice_dim": 2,
  "dcmmeta_version": 0.6,
  "global": {
    "const": {
      "AcquisitionMatrix": [110, 0, 0, 110],
      "AngioFlag": "N",
      "BitsAllocated": 16,
      "BitsStored": 16,
      "BodyPartExamined": "BRAIN",
      "CardiacNumberOfImages": 1,
      "Columns": 880,
      "EchoNumbers": 1,
      "EchoTime": 81.6,
      "EchoTrainLength": 83,
      "FlipAngle": 78.0,
      "HighBit": 15,
      "ImageOrientationPatient": [1.0, 0.0, 0.0, 0.0, 0.9650164969768, -0.2621891694228],
      "ImagePositionPatient": [-879.49686384201, -869.04829572093, 202.04089742156],
      "ImageType": [
        "ORIGINAL",
        "PRIMARY",
        "DIFFUSION",
        "NONE",
        "MB",
        "ND",
        "MOSAIC"
],
      "ImagedNucleus": "1H",
      "ImagingFrequency": 123.258961,
      "InPlanePhaseEncodingDirection": "COL",
      "MRAcquisitionType": "2D",
      "MagneticFieldStrength": 3.0,
      "Manufacturer": "SIEMENS",
      "ManufacturerModelName": "Prisma_fit",
      "Modality": "MR",
      "NominalInterval": 0,
      "NumberOfAverages": 1.0,
      "NumberOfPhaseEncodingSteps": 83,
      "PercentPhaseFieldOfView": 100.0,
      "PercentSampling": 100.0,
      "PerformedProcedureStepStartTime": "130137.057000",
      "PhotometricInterpretation": "MONOCHROME2",
      "PixelBandwidth": 1685.0,
      "PixelRepresentation": 0,
      "PixelSpacing": [2.0, 2.0],
      "ProtocolName": "dMRI_dir98_AP_test_cmrr",
      "RepetitionTime": 2334.0,
      "Rows": 880,
      "SAR": 0.11073451692845,
      "SamplesPerPixel": 1,
      "ScanOptions": [
        "PFP",
        "EXT"
],
      "ScanningSequence": "EP",
      "SequenceVariant": [
        "SK",
        "SS"
],
      "SeriesDescription": "dMRI_dir98_AP_test_cmrr",
      "SeriesNumber": 7,
      "SeriesTime": "132348.547000",
      "SliceLocation": -32.882251767596,
      "SliceThickness": 2.0,
      "SmallestImagePixelValue": 0,
      "SoftwareVersions": "syngo MR E11",
      "SpacingBetweenSlices": 2.0000000487939,
      "SpecificCharacterSet": "ISO_IR 100",
      "StudyID": "1",
      "StudyTime": "130136.965000",
      "TransmitCoilName": "Body",
      "VariableFlipAngleFlag": "N",
      "WindowCenterWidthExplanation": "Algo1",
      "dBdt": 0.0},
    "slices": {}
  },
  "time": {
    "samples": {
      "AcquisitionNumber": [1, 2, 3, 4, 5, 6, 7, 8, 9, 10, 11, 12, 13, 14, 15, 16, 17, 18, 19, 20, 21, 22, 23, 24, 25, 26, 27, 28, 29, 30, 31, 32, 33, 34, 35, 36, 37, 38, 39, 40, 41, 42, 43, 44, 45, 46, 47, 48, 49, 50, 51, 52, 53, 54, 55, 56, 57, 58, 59, 60, 61, 62, 63, 64, 65, 66, 67, 68, 69, 70, 71, 72, 73, 74, 75, 76, 77, 78, 79, 80, 81, 82, 83, 84, 85, 86, 87, 88, 89, 90, 91, 92, 93, 94, 95, 96, 97, 98, 99],
      "AcquisitionTime": ["132242.707500", "132245.040000", "132247.375000", "132249.707500", "132252.042500", "132254.377500", "132256.710000", "132259.045000", "132301.377500", "132303.712500", "132306.047500", "132308.380000", "132310.715000", "132313.047500", "132315.382500", "132317.717500", "132320.050000", "132322.385000", "132324.717500", "132327.052500", "132329.387500", "132331.720000", "132334.055000", "132336.387500", "132338.722500", "132341.057500", "132343.390000", "132345.725000", "132348.057500", "132350.392500", "132352.727500", "132355.060000", "132357.395000", "132359.727500", "132402.062500", "132404.397500", "132406.730000", "132409.065000", "132411.397500", "132413.732500", "132416.067500", "132418.400000", "132420.735000", "132423.067500", "132425.402500", "132427.737500", "132430.070000", "132432.405000", "132434.737500", "132437.072500", "132439.407500", "132441.740000", "132444.075000", "132446.407500", "132448.742500", "132451.077500", "132453.410000", "132455.745000", "132458.077500", "132500.412500", "132502.747500", "132505.080000", "132507.415000", "132509.747500", "132512.082500", "132514.417500", "132516.750000", "132519.085000", "132521.417500", "132523.752500", "132526.087500", "132528.420000", "132530.755000", "132533.087500", "132535.422500", "132537.757500", "132540.090000", "132542.425000", "132544.757500", "132547.092500", "132549.427500", "132551.760000", "132554.095000", "132556.427500", "132558.762500", "132601.097500", "132603.430000", "132605.765000", "132608.097500", "132610.432500", "132612.767500", "132615.100000", "132617.435000", "132619.767500", "132622.102500", "132624.437500", "132626.770000", "132629.105000", "132631.437500"],
      "ContentTime": ["132348.550000", "132348.554000", "132348.565000", "132348.568000", "132348.571000", "132348.574000", "132348.577000", "132348.585000", "132348.597000", "132348.601000", "132348.604000", "132348.607000", "132348.610000", "132348.613000", "132348.616000", "132348.619000", "132348.622000", "132348.625000", "132348.628000", "132348.632000", "132348.635000", "132348.638000", "132348.641000", "132348.644000", "132348.647000", "132348.650000", "132348.653000", "132348.656000", "132428.520000", "132428.523000", "132428.526000", "132428.529000", "132428.533000", "132428.536000", "132428.539000", "132428.547000", "132428.550000", "132428.553000", "132428.556000", "132428.559000", "132428.563000", "132428.566000", "132428.569000", "132428.572000", "132428.575000", "132528.520000", "132528.523000", "132528.526000", "132528.529000", "132528.532000", "132528.536000", "132528.539000", "132528.542000", "132528.545000", "132528.548000", "132528.551000", "132528.554000", "132528.557000", "132528.560000", "132528.563000", "132528.566000", "132528.569000", "132528.573000", "132528.576000", "132528.579000", "132528.582000", "132528.585000", "132528.588000", "132528.591000", "132528.594000", "132628.521000", "132628.524000", "132628.527000", "132628.530000", "132628.534000", "132628.537000", "132628.540000", "132628.543000", "132628.546000", "132628.549000", "132628.552000", "132628.555000", "132628.558000", "132628.561000", "132628.564000", "132628.567000", "132628.570000", "132628.573000", "132628.577000", "132628.579000", "132628.583000", "132628.586000", "132628.589000", "132628.592000", "132628.595000", "132628.598000", "132636.187000", "132636.190000", "132636.198000"],
      "InstanceCreationTime": ["132348.550000", "132348.554000", "132348.565000", "132348.568000", "132348.571000", "132348.574000", "132348.577000", "132348.585000", "132348.597000", "132348.601000", "132348.604000", "132348.607000", "132348.610000", "132348.613000", "132348.616000", "132348.619000", "132348.622000", "132348.625000", "132348.628000", "132348.632000", "132348.635000", "132348.638000", "132348.641000", "132348.644000", "132348.647000", "132348.650000", "132348.653000", "132348.656000", "132428.520000", "132428.523000", "132428.526000", "132428.529000", "132428.533000", "132428.536000", "132428.539000", "132428.547000", "132428.550000", "132428.553000", "132428.556000", "132428.559000", "132428.563000", "132428.566000", "132428.569000", "132428.572000", "132428.575000", "132528.520000", "132528.523000", "132528.526000", "132528.529000", "132528.532000", "132528.536000", "132528.539000", "132528.542000", "132528.545000", "132528.548000", "132528.551000", "132528.554000", "132528.557000", "132528.560000", "132528.563000", "132528.566000", "132528.569000", "132528.573000", "132528.576000", "132528.579000", "132528.582000", "132528.585000", "132528.588000", "132528.591000", "132528.594000", "132628.521000", "132628.524000", "132628.527000", "132628.530000", "132628.534000", "132628.537000", "132628.540000", "132628.543000", "132628.546000", "132628.549000", "132628.552000", "132628.555000", "132628.558000", "132628.561000", "132628.564000", "132628.567000", "132628.570000", "132628.573000", "132628.577000", "132628.579000", "132628.583000", "132628.586000", "132628.589000", "132628.592000", "132628.595000", "132628.598000", "132636.187000", "132636.190000", "132636.198000"],
      "InstanceNumber": [1, 2, 3, 4, 5, 6, 7, 8, 9, 10, 11, 12, 13, 14, 15, 16, 17, 18, 19, 20, 21, 22, 23, 24, 25, 26, 27, 28, 29, 30, 31, 32, 33, 34, 35, 36, 37, 38, 39, 40, 41, 42, 43, 44, 45, 46, 47, 48, 49, 50, 51, 52, 53, 54, 55, 56, 57, 58, 59, 60, 61, 62, 63, 64, 65, 66, 67, 68, 69, 70, 71, 72, 73, 74, 75, 76, 77, 78, 79, 80, 81, 82, 83, 84, 85, 86, 87, 88, 89, 90, 91, 92, 93, 94, 95, 96, 97, 98, 99],
      "LargestImagePixelValue": [33924, 32371, 10430, 4165, 11769, 5234, 10677, 4438, 10376, 5006, 11356, 4919, 11636, 4579, 10819, 6542, 11464, 32544, 5486, 10537, 4892, 10117, 5981, 10189, 4116, 10742, 5245, 11798, 4897, 10464, 5203, 12326, 5504, 33912, 10839, 4457, 9929, 4371, 10223, 4986, 11412, 4599, 11426, 5017, 10274, 4990, 10501, 4946, 11899, 33314, 5965, 9776, 4704, 10554, 5559, 10309, 5149, 10336, 5087, 11655, 5419, 10678, 5215, 11127, 5479, 33090, 11306, 4677, 10030, 4773, 11703, 6260, 11008, 4912, 10152, 4669, 10305, 4405, 10082, 4690, 10473, 33038, 4968, 11724, 4768, 11051, 5107, 10444, 4432, 10980, 4969, 11212, 4448, 10991, 5240, 10746, 5652, 10380, 4924],
      "SequenceName": [
 "ep_b5#1",
 "ep_b5#1",
 "ep_b1490#2",
 "ep_b2990#3",
 "ep_b1495#4",
 "ep_b3005#5",
 "ep_b1500#6",
 "ep_b2985#7",
 "ep_b1495#8",
 "ep_b3005#9",
 "ep_b1490#10",
 "ep_b2995#11",
 "ep_b1490#12",
 "ep_b2990#13",
 "ep_b1500#14",
 "ep_b2985#15",
 "ep_b1500#16",
 "ep_b5#17",
 "ep_b3005#18",
 "ep_b1490#19",
 "ep_b2995#20",
 "ep_b1500#21",
 "ep_b3000#22",
 "ep_b1495#23",
 "ep_b3005#24",
 "ep_b1490#25",
 "ep_b2985#26",
 "ep_b1505#27",
 "ep_b2990#28",
 "ep_b1500#29",
 "ep_b3000#30",
 "ep_b1490#31",
 "ep_b3000#32",
 "ep_b5#33",
 "ep_b1505#34",
 "ep_b3000#35",
 "ep_b1495#36",
 "ep_b2985#37",
 "ep_b1495#38",
 "ep_b2995#39",
 "ep_b1500#40",
 "ep_b2995#41",
 "ep_b1500#42",
 "ep_b2990#43",
 "ep_b1495#44",
 "ep_b3000#45",
 "ep_b1495#46",
 "ep_b3000#47",
 "ep_b1490#48",
 "ep_b5#49",
 "ep_b3005#50",
 "ep_b1500#51",
 "ep_b2990#52",
 "ep_b1505#53",
 "ep_b2995#54",
 "ep_b1495#55",
 "ep_b2990#56",
 "ep_b1490#57",
 "ep_b2995#58",
 "ep_b1500#59",
 "ep_b3000#60",
 "ep_b1500#61",
 "ep_b2985#62",
 "ep_b1500#63",
 "ep_b2990#64",
 "ep_b5#65",
 "ep_b1505#66",
 "ep_b3005#67",
 "ep_b1495#68",
 "ep_b3000#69",
 "ep_b1505#70",
 "ep_b3005#71",
 "ep_b1500#72",
 "ep_b3000#73",
 "ep_b1495#74",
 "ep_b2995#75",
 "ep_b1495#76",
 "ep_b2995#77",
 "ep_b1500#78",
 "ep_b3000#79",
 "ep_b1495#80",
 "ep_b5#81",
 "ep_b2990#82",
 "ep_b1500#83",
 "ep_b2985#84",
 "ep_b1495#85",
 "ep_b2995#86",
 "ep_b1495#87",
 "ep_b2995#88",
 "ep_b1490#89",
 "ep_b2985#90",
 "ep_b1500#91",
 "ep_b3000#92",
 "ep_b1490#93",
 "ep_b3005#94",
 "ep_b1495#95",
 "ep_b2990#96",
 "ep_b1500#97",
 "ep_b3000#98"
],
      "TriggerTime": [13300.0, 15632.5, 17967.5, 20300.0, 22635.0, 24970.0, 27302.5, 29637.5, 31970.0, 34305.0, 36640.0, 38972.5, 41307.5, 43640.0, 45975.0, 48310.0, 50642.5, 52977.5, 55310.0, 57645.0, 59980.0, 62312.5, 64647.5, 66980.0, 69315.0, 71650.0, 73982.5, 76317.5, 78650.0, 80985.0, 83320.0, 85652.5, 87987.5, 90320.0, 92655.0, 94990.0, 97322.5, 99657.5, 101990.0, 104325.0, 106660.0, 108992.5, 111327.5, 113660.0, 115995.0, 118330.0, 120662.5, 122997.5, 125330.0, 127665.0, 130000.0, 132332.5, 134667.5, 137000.0, 139335.0, 141670.0, 144002.5, 146337.5, 148670.0, 151005.0, 153340.0, 155672.5, 158007.5, 160340.0, 162675.0, 165010.0, 167342.5, 169677.5, 172010.0, 174345.0, 176680.0, 179012.5, 181347.5, 183680.0, 186015.0, 188350.0, 190682.5, 193017.5, 195350.0, 197685.0, 200020.0, 202352.5, 204687.5, 207020.0, 209355.0, 211690.0, 214022.5, 216357.5, 218690.0, 221025.0, 223360.0, 225692.5, 228027.5, 230360.0, 232695.0, 235030.0, 237362.5, 239697.5, 242030.0],
      "WindowCenter": [6843.0, 6814.0, 2651.0, 1552.0, 2761.0, 1607.0, 2733.0, 1520.0, 2645.0, 1570.0, 2666.0, 1592.0, 2755.0, 1554.0, 2679.0, 1627.0, 2688.0, 6757.0, 1601.0, 2675.0, 1593.0, 2675.0, 1619.0, 2636.0, 1558.0, 2663.0, 1572.0, 2728.0, 1567.0, 2703.0, 1558.0, 2716.0, 1617.0, 6796.0, 2682.0, 1534.0, 2608.0, 1548.0, 2688.0, 1643.0, 2692.0, 1536.0, 2690.0, 1605.0, 2638.0, 1587.0, 2640.0, 1565.0, 2718.0, 6782.0, 1615.0, 2706.0, 1580.0, 2651.0, 1591.0, 2676.0, 1636.0, 2692.0, 1570.0, 2675.0, 1572.0, 2665.0, 1557.0, 2756.0, 1622.0, 6774.0, 2687.0, 1579.0, 2677.0, 1607.0, 2690.0, 1628.0, 2707.0, 1559.0, 2662.0, 1564.0, 2664.0, 1593.0, 2700.0, 1563.0, 2676.0, 6787.0, 1591.0, 2674.0, 1558.0, 2754.0, 1557.0, 2635.0, 1563.0, 2675.0, 1589.0, 2690.0, 1570.0, 2766.0, 1572.0, 2704.0, 1600.0, 2675.0, 1589.0],
      "WindowWidth": [14702.0, 14645.0, 6291.0, 4016.0, 6516.0, 4124.0, 6460.0, 3947.0, 6286.0, 4033.0, 6322.0, 4093.0, 6492.0, 4029.0, 6357.0, 4165.0, 6366.0, 14522.0, 4102.0, 6346.0, 4101.0, 6336.0, 4154.0, 6263.0, 4039.0, 6310.0, 4040.0, 6437.0, 4058.0, 6392.0, 4025.0, 6423.0, 4140.0, 14587.0, 6348.0, 3986.0, 6206.0, 3996.0, 6351.0, 4214.0, 6369.0, 3982.0, 6368.0, 4116.0, 6270.0, 4073.0, 6273.0, 4052.0, 6420.0, 14564.0, 4130.0, 6400.0, 4082.0, 6299.0, 4106.0, 6341.0, 4187.0, 6375.0, 4042.0, 6344.0, 4052.0, 6325.0, 4005.0, 6499.0, 4169.0, 14554.0, 6355.0, 4071.0, 6350.0, 4130.0, 6363.0, 4160.0, 6411.0, 4015.0, 6312.0, 4046.0, 6325.0, 4099.0, 6391.0, 4041.0, 6333.0, 14572.0, 4088.0, 6336.0, 4010.0, 6486.0, 4023.0, 6258.0, 4040.0, 6331.0, 4079.0, 6369.0, 4062.0, 6520.0, 4053.0, 6402.0, 4114.0, 6344.0, 4086.0]
    },
    "slices": {}
  }
}