{
  "AcquisitionMatrixPE": 110,
  "AcquisitionNumber": 1,
  "AcquisitionTime": "15:52:10.617500",
  "BandwidthPerPixelPhaseEncode": 12.987,
  "BaseResolution": 110,
  "BodyPartExamined": "BRAIN",
  "CoilCombinationMethod": "Sum of Squares",
  "ConsistencyInfo": "N4_VE11C_LATEST_20160120",
  "ConversionSoftware": "dcm2niix",
  "ConversionSoftwareVersion": "v1.0.20220505",
  "DerivedVendorReportedEchoSpacing": 0.000700001,
  "DeviceSerialNumber": "167006",
  "DiffusionScheme": "Monopolar",
  "DwellTime": 2.7e-06,
  "EchoTime": 0.0768,
  "EchoTrainLength": 83,
  "EffectiveEchoSpacing": 0.000700001,
  "FlipAngle": 78,
  "HeudiconvVersion": "0.5.3.post811+g6206e14",
  "ImageComments": "Unaliased MB3/PE3/LB SENSE1+",
  "ImageOrientationPatientDICOM": [0.999816, 0.0036631, 0.0188447, -5.32451e-08, 0.981627, -0.190809],
  "ImageOrientationText": "Tra>Cor(-11.0)>Sag(1.1)",
  "ImageType": [
    "ORIGINAL",
    "PRIMARY",
    "DIFFUSION",
    "NONE",
    "MB",
    "ND",
    "MOSAIC"
],
  "ImagingFrequency": 123.259,
  "InPlanePhaseEncodingDirectionDICOM": "COL",
  "InstitutionAddress": "Chemin Queen-Mary 4565,Montreal,District,CA,H3W 1W5",
  "InstitutionName": "IUGM",
  "InstitutionalDepartmentName": "Department",
  "MRAcquisitionType": "2D",
  "MagneticFieldStrength": 3,
  "Manufacturer": "Siemens",
  "ManufacturersModelName": "Prisma_fit",
  "MatrixCoilMode": "SENSE",
  "Modality": "MR",
  "MultibandAccelerationFactor": 3,
  "PartialFourier": 0.75,
  "PatientPosition": "HFS",
  "PercentPhaseFOV": 100,
  "PercentSampling": 100,
  "PhaseEncodingDirection": "j-",
  "PhaseEncodingSteps": 83,
  "PhaseResolution": 1,
  "PixelBandwidth": 1685,
  "ProcedureStepDescription": "anat^generic",
  "ProtocolName": "dMRI_dir106_AP_test_cmrr",
  "PulseSequenceDetails": "%CustomerSeq%\\cmrr_mbep2d_diff",
  "ReceiveCoilActiveElements": "HC1-6",
  "ReceiveCoilName": "HeadNeck_64",
  "ReconMatrixPE": 110,
  "RepetitionTime": 2.243,
  "SAR": 0.129338,
  "ScanOptions": "PFP\\EXT",
  "ScanningSequence": "EP",
  "SequenceName": "ep_b0",
  "SequenceVariant": "SK\\SS",
  "SeriesDescription": "dMRI_dir106_AP_test_cmrr",
  "SeriesNumber": 8,
  "ShimSetting": [615, -7265, -8761, 619, 87, -13, 55, 39],
  "SliceThickness": 2,
  "SliceTiming": [0, 1.17, 0.115, 1.285, 0.2325, 1.4025, 0.35, 1.52, 0.4675, 1.6375, 0.585, 1.755, 0.7, 1.87, 0.8175, 1.9875, 0.935, 2.105, 1.0525, 0, 1.17, 0.115, 1.285, 0.2325, 1.4025, 0.35, 1.52, 0.4675, 1.6375, 0.585, 1.755, 0.7, 1.87, 0.8175, 1.9875, 0.935, 2.105, 1.0525, 0, 1.17, 0.115, 1.285, 0.2325, 1.4025, 0.35, 1.52, 0.4675, 1.6375, 0.585, 1.755, 0.7, 1.87, 0.8175, 1.9875, 0.935, 2.105, 1.0525],
  "SoftwareVersions": "syngo MR E11",
  "SpacingBetweenSlices": 2,
  "StationName": "MRC35049",
  "TotalReadoutTime": 0.0763001,
  "TxRefAmp": 207.109,
  "WipMemBlock": "7320bd74-b776-473f-be18-bf26c21295f0||Sequence: R017 ve11c/master r/75a17815+; Jun 28 2022 16:41:33 by eja",
  "dcmmeta_affine": [
    [-1.999631404876709, -1.0649018378217079e-07, 0.03839489072561264, 108.95441436767578],
    [-0.007326195016503334, 1.9632543325424194, -0.3815476894378662, -86.163818359375],
    [0.0376894474029541, 0.3816179931163788, 1.9628926515579224, -34.212608337402344],
    [0.0, 0.0, 0.0, 1.0]
],
  "dcmmeta_reorient_transform": [
    [0.0, -1.0, 0.0, 109.0],
    [1.0, 0.0, 0.0, 0.0],
    [0.0, 0.0, 1.0, 0.0],
    [0.0, 0.0, 0.0, 1.0]
],
  "dcmmeta_shape": [110, 110, 57, 107],
  "dcmmeta_slice_dim": 2,
  "dcmmeta_version": 0.6,
  "global": {
    "const": {
      "AcquisitionMatrix": [110, 0, 0, 110],
      "AngioFlag": "N",
      "BitsAllocated": 16,
      "BitsStored": 16,
      "BodyPartExamined": "BRAIN",
      "CardiacNumberOfImages": 1,
      "Columns": 880,
      "EchoNumbers": 1,
      "EchoTime": 76.8,
      "EchoTrainLength": 83,
      "FlipAngle": 78.0,
      "HighBit": 15,
      "ImageOrientationPatient": [0.99981571206514, 0.00366309756703, 0.01884472403354, -5.3245092e-08, 0.98162718293928, -0.1908089979919],
      "ImagePositionPatient": [-878.81245815882, -886.50442336227, 139.7962448755],
      "ImageType": [
        "ORIGINAL",
        "PRIMARY",
        "DIFFUSION",
        "NONE",
        "MB",
        "ND",
        "MOSAIC"
],
      "ImagedNucleus": "1H",
      "ImagingFrequency": 123.259206,
      "InPlanePhaseEncodingDirection": "COL",
      "MRAcquisitionType": "2D",
      "MagneticFieldStrength": 3.0,
      "Manufacturer": "SIEMENS",
      "ManufacturerModelName": "Prisma_fit",
      "Modality": "MR",
      "NominalInterval": 0,
      "NumberOfAverages": 1.0,
      "NumberOfPhaseEncodingSteps": 83,
      "PercentPhaseFieldOfView": 100.0,
      "PercentSampling": 100.0,
      "PerformedProcedureStepStartTime": "153328.808000",
      "PhotometricInterpretation": "MONOCHROME2",
      "PixelBandwidth": 1685.0,
      "PixelRepresentation": 0,
      "PixelSpacing": [2.0, 2.0],
      "ProtocolName": "dMRI_dir106_AP_test_cmrr",
      "RepetitionTime": 2243.0,
      "Rows": 880,
      "SAR": 0.12933786254799,
      "SamplesPerPixel": 1,
      "ScanOptions": [
        "PFP",
        "EXT"
],
      "ScanningSequence": "EP",
      "SequenceVariant": [
        "SK",
        "SS"
],
      "SeriesDescription": "dMRI_dir106_AP_test_cmrr",
      "SeriesNumber": 8,
      "SeriesTime": "155307.454000",
      "SliceLocation": -15.048388211752,
      "SliceThickness": 2.0,
      "SmallestImagePixelValue": 0,
      "SoftwareVersions": "syngo MR E11",
      "SpacingBetweenSlices": 2.0000000696207,
      "SpecificCharacterSet": "ISO_IR 100",
      "StudyID": "1",
      "StudyTime": "153328.653000",
      "TransmitCoilName": "Body",
      "VariableFlipAngleFlag": "N",
      "WindowCenterWidthExplanation": "Algo1",
      "dBdt": 0.0},
    "slices": {}
  },
  "time": {
    "samples": {
      "AcquisitionNumber": [1, 2, 3, 4, 5, 6, 7, 8, 9, 10, 11, 12, 13, 14, 15, 16, 17, 18, 19, 20, 21, 22, 23, 24, 25, 26, 27, 28, 29, 30, 31, 32, 33, 34, 35, 36, 37, 38, 39, 40, 41, 42, 43, 44, 45, 46, 47, 48, 49, 50, 51, 52, 53, 54, 55, 56, 57, 58, 59, 60, 61, 62, 63, 64, 65, 66, 67, 68, 69, 70, 71, 72, 73, 74, 75, 76, 77, 78, 79, 80, 81, 82, 83, 84, 85, 86, 87, 88, 89, 90, 91, 92, 93, 94, 95, 96, 97, 98, 99, 100, 101, 102, 103, 104, 105, 106, 107],
      "AcquisitionTime": ["155210.617500", "155212.860000", "155215.102500", "155217.345000", "155219.587500", "155221.832500", "155224.075000", "155226.317500", "155228.560000", "155230.802500", "155233.047500", "155235.290000", "155237.532500", "155239.775000", "155242.017500", "155244.262500", "155246.505000", "155248.747500", "155250.990000", "155253.232500", "155255.477500", "155257.720000", "155259.962500", "155302.205000", "155304.447500", "155306.692500", "155308.935000", "155311.177500", "155313.420000", "155315.662500", "155317.907500", "155320.150000", "155322.392500", "155324.635000", "155326.877500", "155329.122500", "155331.365000", "155333.607500", "155335.850000", "155338.092500", "155340.337500", "155342.580000", "155344.822500", "155347.065000", "155349.307500", "155351.552500", "155353.795000", "155356.037500", "155358.280000", "155400.522500", "155402.767500", "155405.010000", "155407.252500", "155409.495000", "155411.737500", "155413.982500", "155416.225000", "155418.467500", "155420.710000", "155422.952500", "155425.197500", "155427.440000", "155429.682500", "155431.925000", "155434.167500", "155436.412500", "155438.655000", "155440.897500", "155443.140000", "155445.382500", "155447.627500", "155449.870000", "155452.112500", "155454.355000", "155456.597500", "155458.842500", "155501.085000", "155503.327500", "155505.570000", "155507.812500", "155510.057500", "155512.300000", "155514.542500", "155516.785000", "155519.027500", "155521.272500", "155523.515000", "155525.757500", "155528.000000", "155530.242500", "155532.487500", "155534.730000", "155536.972500", "155539.215000", "155541.457500", "155543.702500", "155545.945000", "155548.187500", "155550.430000", "155552.672500", "155554.917500", "155557.160000", "155559.402500", "155601.645000", "155603.887500", "155606.132500", "155608.375000"],
      "ContentTime": ["155307.456000", "155307.460000", "155307.463000", "155307.466000", "155307.469000", "155307.473000", "155307.476000", "155307.479000", "155307.482000", "155307.485000", "155307.488000", "155307.491000", "155307.494000", "155307.497000", "155307.501000", "155307.504000", "155307.507000", "155307.510000", "155307.513000", "155307.516000", "155307.519000", "155307.522000", "155307.525000", "155307.532000", "155307.535000", "155407.421000", "155407.425000", "155407.428000", "155407.431000", "155407.434000", "155407.437000", "155407.440000", "155407.443000", "155407.446000", "155407.450000", "155407.453000", "155407.456000", "155407.459000", "155407.462000", "155407.465000", "155407.469000", "155407.472000", "155407.475000", "155407.478000", "155407.481000", "155407.484000", "155407.487000", "155407.490000", "155407.493000", "155407.496000", "155407.500000", "155507.421000", "155507.424000", "155507.427000", "155507.431000", "155507.434000", "155507.437000", "155507.440000", "155507.443000", "155507.446000", "155507.449000", "155507.452000", "155507.456000", "155507.459000", "155507.462000", "155507.465000", "155507.468000", "155507.471000", "155507.474000", "155507.478000", "155507.481000", "155507.484000", "155507.487000", "155507.490000", "155507.493000", "155507.496000", "155507.499000", "155507.502000", "155607.421000", "155607.424000", "155607.427000", "155607.430000", "155607.434000", "155607.437000", "155607.440000", "155607.443000", "155607.446000", "155607.449000", "155607.452000", "155607.456000", "155607.459000", "155607.462000", "155607.465000", "155607.468000", "155607.471000", "155607.490000", "155607.493000", "155607.496000", "155607.499000", "155607.502000", "155607.505000", "155607.508000", "155607.511000", "155607.515000", "155607.518000", "155612.955000", "155612.958000"],
      "InstanceCreationTime": ["155307.456000", "155307.460000", "155307.463000", "155307.466000", "155307.469000", "155307.473000", "155307.476000", "155307.479000", "155307.482000", "155307.485000", "155307.488000", "155307.491000", "155307.494000", "155307.497000", "155307.501000", "155307.504000", "155307.507000", "155307.510000", "155307.513000", "155307.516000", "155307.519000", "155307.522000", "155307.525000", "155307.532000", "155307.535000", "155407.421000", "155407.425000", "155407.428000", "155407.431000", "155407.434000", "155407.437000", "155407.440000", "155407.443000", "155407.446000", "155407.450000", "155407.453000", "155407.456000", "155407.459000", "155407.462000", "155407.465000", "155407.469000", "155407.472000", "155407.475000", "155407.478000", "155407.481000", "155407.484000", "155407.487000", "155407.490000", "155407.493000", "155407.496000", "155407.500000", "155507.421000", "155507.424000", "155507.427000", "155507.431000", "155507.434000", "155507.437000", "155507.440000", "155507.443000", "155507.446000", "155507.449000", "155507.452000", "155507.456000", "155507.459000", "155507.462000", "155507.465000", "155507.468000", "155507.471000", "155507.474000", "155507.478000", "155507.481000", "155507.484000", "155507.487000", "155507.490000", "155507.493000", "155507.496000", "155507.499000", "155507.502000", "155607.421000", "155607.424000", "155607.427000", "155607.430000", "155607.434000", "155607.437000", "155607.440000", "155607.443000", "155607.446000", "155607.449000", "155607.452000", "155607.456000", "155607.459000", "155607.462000", "155607.465000", "155607.468000", "155607.471000", "155607.490000", "155607.493000", "155607.496000", "155607.499000", "155607.502000", "155607.505000", "155607.508000", "155607.511000", "155607.515000", "155607.518000", "155612.955000", "155612.958000"],
      "InstanceNumber": [1, 2, 3, 4, 5, 6, 7, 8, 9, 10, 11, 12, 13, 14, 15, 16, 17, 18, 19, 20, 21, 22, 23, 24, 25, 26, 27, 28, 29, 30, 31, 32, 33, 34, 35, 36, 37, 38, 39, 40, 41, 42, 43, 44, 45, 46, 47, 48, 49, 50, 51, 52, 53, 54, 55, 56, 57, 58, 59, 60, 61, 62, 63, 64, 65, 66, 67, 68, 69, 70, 71, 72, 73, 74, 75, 76, 77, 78, 79, 80, 81, 82, 83, 84, 85, 86, 87, 88, 89, 90, 91, 92, 93, 94, 95, 96, 97, 98, 99, 100, 101, 102, 103, 104, 105, 106, 107],
      "LargestImagePixelValue": [31394, 31376, 14556, 7848, 14493, 14629, 23583, 7936, 8377, 7312, 15557, 24207, 7929, 8171, 8320, 8058, 14565, 7248, 7090, 9332, 7855, 32538, 15102, 8392, 15635, 14419, 8697, 7501, 8355, 7479, 23800, 7733, 15418, 8690, 6791, 23309, 9711, 7562, 14929, 7945, 8190, 31526, 8699, 7949, 8692, 24656, 14576, 7995, 7070, 14885, 9377, 15280, 13315, 9073, 25874, 14187, 8254, 14515, 8951, 7555, 14474, 30920, 13747, 7765, 7695, 8796, 8283, 23989, 14954, 15213, 7765, 7822, 7727, 7251, 14778, 7357, 7608, 8070, 15160, 15152, 7405, 32426, 14682, 8930, 8122, 13559, 15281, 8191, 15359, 7812, 7669, 7139, 15108, 9256, 7502, 9285, 23808, 14065, 7691, 15409, 14116, 32636, 7679, 8375, 14073, 7369, 7866],
      "SequenceName": [
 "ep_b0",
 "ep_b0",
 "ep_b1000#2",
 "ep_b2000#3",
 "ep_b1000#4",
 "ep_b1000#5",
 "ep_b300#6",
 "ep_b2000#7",
 "ep_b2000#8",
 "ep_b2000#9",
 "ep_b1000#10",
 "ep_b300#11",
 "ep_b2000#12",
 "ep_b2000#13",
 "ep_b2000#14",
 "ep_b2000#15",
 "ep_b1000#16",
 "ep_b2000#17",
 "ep_b2000#18",
 "ep_b2000#19",
 "ep_b2000#20",
 "ep_b0",
 "ep_b1000#22",
 "ep_b2000#23",
 "ep_b1000#24",
 "ep_b1000#25",
 "ep_b2000#26",
 "ep_b2000#27",
 "ep_b2000#28",
 "ep_b2000#29",
 "ep_b300#30",
 "ep_b2000#31",
 "ep_b1000#32",
 "ep_b2000#33",
 "ep_b2000#34",
 "ep_b300#35",
 "ep_b2000#36",
 "ep_b2000#37",
 "ep_b1000#38",
 "ep_b2000#39",
 "ep_b2000#40",
 "ep_b0",
 "ep_b2000#42",
 "ep_b2000#43",
 "ep_b2000#44",
 "ep_b300#45",
 "ep_b1000#46",
 "ep_b2000#47",
 "ep_b2000#48",
 "ep_b1000#49",
 "ep_b2000#50",
 "ep_b1000#51",
 "ep_b1000#52",
 "ep_b2000#53",
 "ep_b300#54",
 "ep_b1000#55",
 "ep_b2000#56",
 "ep_b1000#57",
 "ep_b2000#58",
 "ep_b2000#59",
 "ep_b1000#60",
 "ep_b0",
 "ep_b1000#62",
 "ep_b2000#63",
 "ep_b2000#64",
 "ep_b2000#65",
 "ep_b2000#66",
 "ep_b300#67",
 "ep_b1000#68",
 "ep_b1000#69",
 "ep_b2000#70",
 "ep_b2000#71",
 "ep_b2000#72",
 "ep_b2000#73",
 "ep_b1000#74",
 "ep_b2000#75",
 "ep_b2000#76",
 "ep_b2000#77",
 "ep_b1000#78",
 "ep_b1000#79",
 "ep_b2000#80",
 "ep_b0",
 "ep_b1000#82",
 "ep_b2000#83",
 "ep_b2000#84",
 "ep_b1000#85",
 "ep_b1000#86",
 "ep_b2000#87",
 "ep_b1000#88",
 "ep_b2000#89",
 "ep_b2000#90",
 "ep_b2000#91",
 "ep_b1000#92",
 "ep_b2000#93",
 "ep_b2000#94",
 "ep_b2000#95",
 "ep_b300#96",
 "ep_b1000#97",
 "ep_b2000#98",
 "ep_b1000#99",
 "ep_b1000#100",
 "ep_b0",
 "ep_b2000#102",
 "ep_b2000#103",
 "ep_b1000#104",
 "ep_b2000#105",
 "ep_b2000#106"
],
      "TriggerTime": [12835.0, 15080.0, 17322.5, 19565.0, 21807.5, 24050.0, 26295.0, 28537.5, 30780.0, 33022.5, 35265.0, 37510.0, 39752.5, 41995.0, 44237.5, 46480.0, 48725.0, 50967.5, 53210.0, 55452.5, 57695.0, 59940.0, 62182.5, 64425.0, 66667.5, 68910.0, 71155.0, 73397.5, 75640.0, 77882.5, 80125.0, 82370.0, 84612.5, 86855.0, 89097.5, 91340.0, 93585.0, 95827.5, 98070.0, 100312.5, 102555.0, 104800.0, 107042.5, 109285.0, 111527.5, 113770.0, 116015.0, 118257.5, 120500.0, 122742.5, 124985.0, 127230.0, 129472.5, 131715.0, 133957.5, 136200.0, 138445.0, 140687.5, 142930.0, 145172.5, 147415.0, 149660.0, 151902.5, 154145.0, 156387.5, 158630.0, 160875.0, 163117.5, 165360.0, 167602.5, 169845.0, 172090.0, 174332.5, 176575.0, 178817.5, 181060.0, 183305.0, 185547.5, 187790.0, 190032.5, 192275.0, 194520.0, 196762.5, 199005.0, 201247.5, 203490.0, 205735.0, 207977.5, 210220.0, 212462.5, 214705.0, 216950.0, 219192.5, 221435.0, 223677.5, 225920.0, 228165.0, 230407.5, 232650.0, 234892.5, 237135.0, 239380.0, 241622.5, 243865.0, 246107.5, 248350.0, 250595.0],
      "WindowCenter": [6968.0, 6947.0, 3499.0, 2231.0, 3446.0, 3464.0, 5272.0, 2230.0, 2257.0, 2262.0, 3501.0, 5240.0, 2226.0, 2251.0, 2287.0, 2248.0, 3434.0, 2214.0, 2287.0, 2269.0, 2211.0, 6905.0, 3465.0, 2255.0, 3499.0, 3470.0, 2249.0, 2257.0, 2234.0, 2212.0, 5279.0, 2231.0, 3482.0, 2259.0, 2219.0, 5262.0, 2310.0, 2215.0, 3469.0, 2301.0, 2265.0, 6848.0, 2270.0, 2241.0, 2242.0, 5237.0, 3484.0, 2225.0, 2268.0, 3467.0, 2272.0, 3468.0, 3472.0, 2285.0, 5258.0, 3455.0, 2231.0, 3482.0, 2266.0, 2273.0, 3451.0, 6825.0, 3449.0, 2198.0, 2263.0, 2232.0, 2239.0, 5241.0, 3423.0, 3461.0, 2259.0, 2235.0, 2287.0, 2242.0, 3443.0, 2235.0, 2259.0, 2244.0, 3435.0, 3434.0, 2218.0, 6865.0, 3437.0, 2292.0, 2235.0, 3421.0, 3471.0, 2211.0, 3457.0, 2244.0, 2274.0, 2216.0, 3509.0, 2283.0, 2271.0, 2272.0, 5237.0, 3443.0, 2213.0, 3486.0, 3446.0, 6893.0, 2222.0, 2229.0, 3492.0, 2204.0, 2255.0],
      "WindowWidth": [14959.0, 14919.0, 7988.0, 5445.0, 7889.0, 7904.0, 11454.0, 5431.0, 5496.0, 5508.0, 7976.0, 11394.0, 5413.0, 5464.0, 5559.0, 5484.0, 7859.0, 5411.0, 5554.0, 5520.0, 5387.0, 14805.0, 7912.0, 5473.0, 7977.0, 7923.0, 5485.0, 5483.0, 5428.0, 5395.0, 11461.0, 5442.0, 7944.0, 5498.0, 5426.0, 11437.0, 5592.0, 5409.0, 7928.0, 5581.0, 5497.0, 14708.0, 5507.0, 5455.0, 5451.0, 11384.0, 7947.0, 5418.0, 5513.0, 7919.0, 5529.0, 7916.0, 7933.0, 5543.0, 11422.0, 7894.0, 5441.0, 7947.0, 5494.0, 5531.0, 7892.0, 14656.0, 7895.0, 5372.0, 5513.0, 5454.0, 5444.0, 11396.0, 7834.0, 7912.0, 5498.0, 5452.0, 5549.0, 5469.0, 7876.0, 5465.0, 5495.0, 5465.0, 7856.0, 7858.0, 5418.0, 14730.0, 7853.0, 5546.0, 5458.0, 7831.0, 7932.0, 5385.0, 7905.0, 5462.0, 5525.0, 5409.0, 7997.0, 5546.0, 5529.0, 5521.0, 11380.0, 7880.0, 5406.0, 7961.0, 7881.0, 14784.0, 5414.0, 5437.0, 7961.0, 5389.0, 5478.0]
    },
    "slices": {}
  }
}