{
  "AcquisitionMatrixPE": 110,
  "AcquisitionNumber": 1,
  "AcquisitionTime": "15:56:32.112500",
  "BandwidthPerPixelPhaseEncode": 12.987,
  "BaseResolution": 110,
  "BodyPartExamined": "BRAIN",
  "CoilCombinationMethod": "Sum of Squares",
  "ConsistencyInfo": "N4_VE11C_LATEST_20160120",
  "ConversionSoftware": "dcm2niix",
  "ConversionSoftwareVersion": "v1.0.20220505",
  "DerivedVendorReportedEchoSpacing": 0.000700001,
  "DeviceSerialNumber": "167006",
  "DiffusionScheme": "Monopolar",
  "DwellTime": 2.7e-06,
  "EchoTime": 0.0768,
  "EchoTrainLength": 83,
  "EffectiveEchoSpacing": 0.000700001,
  "FlipAngle": 78,
  "HeudiconvVersion": "0.5.3.post811+g6206e14",
  "ImageComments": "Unaliased MB3/PE3/LB SENSE1+",
  "ImageOrientationPatientDICOM": [0.999816, 0.0036631, 0.0188447, -5.32451e-08, 0.981627, -0.190809],
  "ImageOrientationText": "Tra>Cor(-11.0)>Sag(1.1)",
  "ImageType": [
    "ORIGINAL",
    "PRIMARY",
    "DIFFUSION",
    "NONE",
    "MB",
    "ND",
    "MOSAIC"
],
  "ImagingFrequency": 123.259,
  "InPlanePhaseEncodingDirectionDICOM": "COL",
  "InstitutionAddress": "Chemin Queen-Mary 4565,Montreal,District,CA,H3W 1W5",
  "InstitutionName": "IUGM",
  "InstitutionalDepartmentName": "Department",
  "MRAcquisitionType": "2D",
  "MagneticFieldStrength": 3,
  "Manufacturer": "Siemens",
  "ManufacturersModelName": "Prisma_fit",
  "MatrixCoilMode": "SENSE",
  "Modality": "MR",
  "MultibandAccelerationFactor": 3,
  "PartialFourier": 0.75,
  "PatientPosition": "HFS",
  "PercentPhaseFOV": 100,
  "PercentSampling": 100,
  "PhaseEncodingDirection": "j",
  "PhaseEncodingSteps": 83,
  "PhaseResolution": 1,
  "PixelBandwidth": 1685,
  "ProcedureStepDescription": "anat^generic",
  "ProtocolName": "dMRI_dir106_PA_test_cmrr",
  "PulseSequenceDetails": "%CustomerSeq%\\cmrr_mbep2d_diff",
  "ReceiveCoilActiveElements": "HC1-6",
  "ReceiveCoilName": "HeadNeck_64",
  "ReconMatrixPE": 110,
  "RepetitionTime": 2.243,
  "SAR": 0.129338,
  "ScanOptions": "PFP\\EXT",
  "ScanningSequence": "EP",
  "SequenceName": "ep_b0",
  "SequenceVariant": "SK\\SS",
  "SeriesDescription": "dMRI_dir106_PA_test_cmrr",
  "SeriesNumber": 13,
  "ShimSetting": [615, -7265, -8761, 619, 87, -13, 55, 39],
  "SliceThickness": 2,
  "SliceTiming": [0, 1.17, 0.1175, 1.2875, 0.2325, 1.4025, 0.35, 1.52, 0.4675, 1.6375, 0.585, 1.755, 0.7025, 1.8725, 0.8175, 1.9875, 0.935, 2.105, 1.0525, 0, 1.17, 0.1175, 1.2875, 0.2325, 1.4025, 0.35, 1.52, 0.4675, 1.6375, 0.585, 1.755, 0.7025, 1.8725, 0.8175, 1.9875, 0.935, 2.105, 1.0525, 0, 1.17, 0.1175, 1.2875, 0.2325, 1.4025, 0.35, 1.52, 0.4675, 1.6375, 0.585, 1.755, 0.7025, 1.8725, 0.8175, 1.9875, 0.935, 2.105, 1.0525],
  "SoftwareVersions": "syngo MR E11",
  "SpacingBetweenSlices": 2,
  "StationName": "MRC35049",
  "TotalReadoutTime": 0.0763001,
  "TxRefAmp": 207.109,
  "WipMemBlock": "b66409a3-bcc4-49b3-a966-be2464008495||Sequence: R017 ve11c/master r/75a17815+; Jun 28 2022 16:41:33 by eja",
  "dcmmeta_affine": [
    [-1.999631404876709, -1.0649018378217079e-07, 0.03839489072561264, 108.95441436767578],
    [-0.007326195016503334, 1.9632543325424194, -0.3815476894378662, -86.163818359375],
    [0.0376894474029541, 0.3816179931163788, 1.9628926515579224, -34.212608337402344],
    [0.0, 0.0, 0.0, 1.0]
],
  "dcmmeta_reorient_transform": [
    [0.0, -1.0, 0.0, 109.0],
    [1.0, 0.0, 0.0, 0.0],
    [0.0, 0.0, 1.0, 0.0],
    [0.0, 0.0, 0.0, 1.0]
],
  "dcmmeta_shape": [110, 110, 57, 107],
  "dcmmeta_slice_dim": 2,
  "dcmmeta_version": 0.6,
  "global": {
    "const": {
      "AcquisitionMatrix": [110, 0, 0, 110],
      "AngioFlag": "N",
      "BitsAllocated": 16,
      "BitsStored": 16,
      "BodyPartExamined": "BRAIN",
      "CardiacNumberOfImages": 1,
      "Columns": 880,
      "EchoNumbers": 1,
      "EchoTime": 76.8,
      "EchoTrainLength": 83,
      "FlipAngle": 78.0,
      "HighBit": 15,
      "ImageOrientationPatient": [0.99981571206514, 0.00366309756703, 0.01884472403354, -5.3245092e-08, 0.98162718293928, -0.1908089979919],
      "ImagePositionPatient": [-878.81245815882, -886.50442336227, 139.7962448755],
      "ImageType": [
        "ORIGINAL",
        "PRIMARY",
        "DIFFUSION",
        "NONE",
        "MB",
        "ND",
        "MOSAIC"
],
      "ImagedNucleus": "1H",
      "ImagingFrequency": 123.259209,
      "InPlanePhaseEncodingDirection": "COL",
      "MRAcquisitionType": "2D",
      "MagneticFieldStrength": 3.0,
      "Manufacturer": "SIEMENS",
      "ManufacturerModelName": "Prisma_fit",
      "Modality": "MR",
      "NominalInterval": 0,
      "NumberOfAverages": 1.0,
      "NumberOfPhaseEncodingSteps": 83,
      "PercentPhaseFieldOfView": 100.0,
      "PercentSampling": 100.0,
      "PerformedProcedureStepStartTime": "153328.808000",
      "PhotometricInterpretation": "MONOCHROME2",
      "PixelBandwidth": 1685.0,
      "PixelRepresentation": 0,
      "PixelSpacing": [2.0, 2.0],
      "ProtocolName": "dMRI_dir106_PA_test_cmrr",
      "RepetitionTime": 2243.0,
      "Rows": 880,
      "SAR": 0.12933786254799,
      "SamplesPerPixel": 1,
      "ScanOptions": [
        "PFP",
        "EXT"
],
      "ScanningSequence": "EP",
      "SequenceVariant": [
        "SK",
        "SS"
],
      "SeriesDescription": "dMRI_dir106_PA_test_cmrr",
      "SeriesNumber": 13,
      "SeriesTime": "155735.034000",
      "SliceLocation": -15.048388211752,
      "SliceThickness": 2.0,
      "SmallestImagePixelValue": 0,
      "SoftwareVersions": "syngo MR E11",
      "SpacingBetweenSlices": 2.0000000696207,
      "SpecificCharacterSet": "ISO_IR 100",
      "StudyID": "1",
      "StudyTime": "153328.653000",
      "TransmitCoilName": "Body",
      "VariableFlipAngleFlag": "N",
      "WindowCenterWidthExplanation": "Algo1",
      "dBdt": 0.0},
    "slices": {}
  },
  "time": {
    "samples": {
      "AcquisitionNumber": [1, 2, 3, 4, 5, 6, 7, 8, 9, 10, 11, 12, 13, 14, 15, 16, 17, 18, 19, 20, 21, 22, 23, 24, 25, 26, 27, 28, 29, 30, 31, 32, 33, 34, 35, 36, 37, 38, 39, 40, 41, 42, 43, 44, 45, 46, 47, 48, 49, 50, 51, 52, 53, 54, 55, 56, 57, 58, 59, 60, 61, 62, 63, 64, 65, 66, 67, 68, 69, 70, 71, 72, 73, 74, 75, 76, 77, 78, 79, 80, 81, 82, 83, 84, 85, 86, 87, 88, 89, 90, 91, 92, 93, 94, 95, 96, 97, 98, 99, 100, 101, 102, 103, 104, 105, 106, 107],
      "AcquisitionTime": ["155632.112500", "155634.355000", "155636.597500", "155638.840000", "155641.085000", "155643.327500", "155645.570000", "155647.812500", "155650.055000", "155652.300000", "155654.542500", "155656.785000", "155659.027500", "155701.270000", "155703.515000", "155705.757500", "155708.000000", "155710.242500", "155712.485000", "155714.730000", "155716.972500", "155719.215000", "155721.457500", "155723.700000", "155725.945000", "155728.187500", "155730.430000", "155732.672500", "155734.915000", "155737.160000", "155739.402500", "155741.645000", "155743.887500", "155746.130000", "155748.375000", "155750.617500", "155752.860000", "155755.102500", "155757.345000", "155759.590000", "155801.832500", "155804.075000", "155806.317500", "155808.560000", "155810.805000", "155813.047500", "155815.290000", "155817.532500", "155819.775000", "155822.020000", "155824.262500", "155826.505000", "155828.747500", "155830.990000", "155833.235000", "155835.477500", "155837.720000", "155839.962500", "155842.205000", "155844.450000", "155846.692500", "155848.935000", "155851.177500", "155853.420000", "155855.665000", "155857.907500", "155900.150000", "155902.392500", "155904.635000", "155906.880000", "155909.122500", "155911.365000", "155913.607500", "155915.850000", "155918.095000", "155920.337500", "155922.580000", "155924.822500", "155927.065000", "155929.310000", "155931.552500", "155933.795000", "155936.037500", "155938.280000", "155940.525000", "155942.767500", "155945.010000", "155947.252500", "155949.495000", "155951.740000", "155953.982500", "155956.225000", "155958.467500", "160000.710000", "160002.955000", "160005.197500", "160007.440000", "160009.682500", "160011.925000", "160014.170000", "160016.412500", "160018.655000", "160020.897500", "160023.140000", "160025.385000", "160027.627500", "160029.870000"],
      "ContentTime": ["155735.037000", "155735.040000", "155735.043000", "155735.047000", "155735.050000", "155735.053000", "155735.056000", "155735.059000", "155735.062000", "155735.066000", "155735.069000", "155735.072000", "155735.075000", "155735.078000", "155735.081000", "155735.084000", "155735.088000", "155735.091000", "155735.094000", "155735.097000", "155735.100000", "155735.103000", "155735.106000", "155735.109000", "155735.112000", "155735.124000", "155735.128000", "155835.000000", "155835.004000", "155835.007000", "155835.010000", "155835.013000", "155835.016000", "155835.019000", "155835.022000", "155835.025000", "155835.028000", "155835.032000", "155835.035000", "155835.038000", "155835.041000", "155835.044000", "155835.047000", "155835.050000", "155835.053000", "155835.056000", "155835.060000", "155835.063000", "155835.066000", "155835.069000", "155835.073000", "155835.076000", "155835.079000", "155835.082000", "155935.000000", "155935.004000", "155935.007000", "155935.010000", "155935.013000", "155935.016000", "155935.019000", "155935.022000", "155935.025000", "155935.029000", "155935.032000", "155935.035000", "155935.038000", "155935.041000", "155935.044000", "155935.047000", "155935.050000", "155935.053000", "155935.057000", "155935.060000", "155935.063000", "155935.066000", "155935.070000", "155935.073000", "155935.076000", "155935.079000", "155935.082000", "160034.814000", "160034.817000", "160034.820000", "160034.824000", "160034.827000", "160034.830000", "160034.833000", "160034.836000", "160034.839000", "160034.842000", "160034.845000", "160034.849000", "160034.852000", "160034.855000", "160034.858000", "160034.861000", "160034.864000", "160034.867000", "160034.870000", "160034.874000", "160034.877000", "160034.880000", "160034.883000", "160034.886000", "160034.889000", "160034.892000"],
      "InstanceCreationTime": ["155735.037000", "155735.040000", "155735.043000", "155735.047000", "155735.050000", "155735.053000", "155735.056000", "155735.059000", "155735.062000", "155735.066000", "155735.069000", "155735.072000", "155735.075000", "155735.078000", "155735.081000", "155735.084000", "155735.088000", "155735.091000", "155735.094000", "155735.097000", "155735.100000", "155735.103000", "155735.106000", "155735.109000", "155735.112000", "155735.124000", "155735.128000", "155835.000000", "155835.004000", "155835.007000", "155835.010000", "155835.013000", "155835.016000", "155835.019000", "155835.022000", "155835.025000", "155835.028000", "155835.032000", "155835.035000", "155835.038000", "155835.041000", "155835.044000", "155835.047000", "155835.050000", "155835.053000", "155835.056000", "155835.060000", "155835.063000", "155835.066000", "155835.069000", "155835.073000", "155835.076000", "155835.079000", "155835.082000", "155935.000000", "155935.004000", "155935.007000", "155935.010000", "155935.013000", "155935.016000", "155935.019000", "155935.022000", "155935.025000", "155935.029000", "155935.032000", "155935.035000", "155935.038000", "155935.041000", "155935.044000", "155935.047000", "155935.050000", "155935.053000", "155935.057000", "155935.060000", "155935.063000", "155935.066000", "155935.070000", "155935.073000", "155935.076000", "155935.079000", "155935.082000", "160034.814000", "160034.817000", "160034.820000", "160034.824000", "160034.827000", "160034.830000", "160034.833000", "160034.836000", "160034.839000", "160034.842000", "160034.845000", "160034.849000", "160034.852000", "160034.855000", "160034.858000", "160034.861000", "160034.864000", "160034.867000", "160034.870000", "160034.874000", "160034.877000", "160034.880000", "160034.883000", "160034.886000", "160034.889000", "160034.892000"],
      "InstanceNumber": [1, 2, 3, 4, 5, 6, 7, 8, 9, 10, 11, 12, 13, 14, 15, 16, 17, 18, 19, 20, 21, 22, 23, 24, 25, 26, 27, 28, 29, 30, 31, 32, 33, 34, 35, 36, 37, 38, 39, 40, 41, 42, 43, 44, 45, 46, 47, 48, 49, 50, 51, 52, 53, 54, 55, 56, 57, 58, 59, 60, 61, 62, 63, 64, 65, 66, 67, 68, 69, 70, 71, 72, 73, 74, 75, 76, 77, 78, 79, 80, 81, 82, 83, 84, 85, 86, 87, 88, 89, 90, 91, 92, 93, 94, 95, 96, 97, 98, 99, 100, 101, 102, 103, 104, 105, 106, 107],
      "LargestImagePixelValue": [43988, 44318, 19174, 11715, 19912, 19396, 30914, 10694, 10460, 10452, 19514, 32728, 10381, 9666, 10779, 11574, 20160, 10582, 11465, 10858, 10552, 41173, 19500, 10621, 19014, 18606, 10464, 9673, 10506, 10135, 31895, 9997, 19705, 11148, 10833, 31393, 10458, 11287, 18323, 10340, 9452, 43930, 11453, 9780, 10454, 32795, 19476, 10212, 9813, 19140, 10184, 18825, 19165, 10739, 32020, 19216, 10554, 20677, 11185, 9760, 17829, 43801, 19638, 10054, 11774, 10167, 10142, 31780, 18928, 18451, 9894, 11311, 11876, 10785, 18476, 11512, 11688, 10514, 18648, 19022, 11344, 42803, 18262, 10900, 10531, 19132, 18550, 9186, 17048, 10566, 11793, 10070, 18953, 9834, 9349, 10784, 34164, 19738, 11422, 19488, 18673, 42112, 9507, 10252, 18362, 10048, 11009],
      "SequenceName": [
 "ep_b0",
 "ep_b0",
 "ep_b1000#2",
 "ep_b2000#3",
 "ep_b1000#4",
 "ep_b1000#5",
 "ep_b300#6",
 "ep_b2000#7",
 "ep_b2000#8",
 "ep_b2000#9",
 "ep_b1000#10",
 "ep_b300#11",
 "ep_b2000#12",
 "ep_b2000#13",
 "ep_b2000#14",
 "ep_b2000#15",
 "ep_b1000#16",
 "ep_b2000#17",
 "ep_b2000#18",
 "ep_b2000#19",
 "ep_b2000#20",
 "ep_b0",
 "ep_b1000#22",
 "ep_b2000#23",
 "ep_b1000#24",
 "ep_b1000#25",
 "ep_b2000#26",
 "ep_b2000#27",
 "ep_b2000#28",
 "ep_b2000#29",
 "ep_b300#30",
 "ep_b2000#31",
 "ep_b1000#32",
 "ep_b2000#33",
 "ep_b2000#34",
 "ep_b300#35",
 "ep_b2000#36",
 "ep_b2000#37",
 "ep_b1000#38",
 "ep_b2000#39",
 "ep_b2000#40",
 "ep_b0",
 "ep_b2000#42",
 "ep_b2000#43",
 "ep_b2000#44",
 "ep_b300#45",
 "ep_b1000#46",
 "ep_b2000#47",
 "ep_b2000#48",
 "ep_b1000#49",
 "ep_b2000#50",
 "ep_b1000#51",
 "ep_b1000#52",
 "ep_b2000#53",
 "ep_b300#54",
 "ep_b1000#55",
 "ep_b2000#56",
 "ep_b1000#57",
 "ep_b2000#58",
 "ep_b2000#59",
 "ep_b1000#60",
 "ep_b0",
 "ep_b1000#62",
 "ep_b2000#63",
 "ep_b2000#64",
 "ep_b2000#65",
 "ep_b2000#66",
 "ep_b300#67",
 "ep_b1000#68",
 "ep_b1000#69",
 "ep_b2000#70",
 "ep_b2000#71",
 "ep_b2000#72",
 "ep_b2000#73",
 "ep_b1000#74",
 "ep_b2000#75",
 "ep_b2000#76",
 "ep_b2000#77",
 "ep_b1000#78",
 "ep_b1000#79",
 "ep_b2000#80",
 "ep_b0",
 "ep_b1000#82",
 "ep_b2000#83",
 "ep_b2000#84",
 "ep_b1000#85",
 "ep_b1000#86",
 "ep_b2000#87",
 "ep_b1000#88",
 "ep_b2000#89",
 "ep_b2000#90",
 "ep_b2000#91",
 "ep_b1000#92",
 "ep_b2000#93",
 "ep_b2000#94",
 "ep_b2000#95",
 "ep_b300#96",
 "ep_b1000#97",
 "ep_b2000#98",
 "ep_b1000#99",
 "ep_b1000#100",
 "ep_b0",
 "ep_b2000#102",
 "ep_b2000#103",
 "ep_b1000#104",
 "ep_b2000#105",
 "ep_b2000#106"
],
      "TriggerTime": [12837.5, 15080.0, 17322.5, 19565.0, 21810.0, 24052.5, 26295.0, 28537.5, 30780.0, 33025.0, 35267.5, 37510.0, 39752.5, 41995.0, 44240.0, 46482.5, 48725.0, 50967.5, 53210.0, 55455.0, 57697.5, 59940.0, 62182.5, 64425.0, 66670.0, 68912.5, 71155.0, 73397.5, 75640.0, 77885.0, 80127.5, 82370.0, 84612.5, 86855.0, 89100.0, 91342.5, 93585.0, 95827.5, 98070.0, 100315.0, 102557.5, 104800.0, 107042.5, 109285.0, 111530.0, 113772.5, 116015.0, 118257.5, 120500.0, 122745.0, 124987.5, 127230.0, 129472.5, 131715.0, 133960.0, 136202.5, 138445.0, 140687.5, 142930.0, 145175.0, 147417.5, 149660.0, 151902.5, 154145.0, 156390.0, 158632.5, 160875.0, 163117.5, 165360.0, 167605.0, 169847.5, 172090.0, 174332.5, 176575.0, 178820.0, 181062.5, 183305.0, 185547.5, 187790.0, 190035.0, 192277.5, 194520.0, 196762.5, 199005.0, 201250.0, 203492.5, 205735.0, 207977.5, 210220.0, 212465.0, 214707.5, 216950.0, 219192.5, 221435.0, 223680.0, 225922.5, 228165.0, 230407.5, 232650.0, 234895.0, 237137.5, 239380.0, 241622.5, 243865.0, 246110.0, 248352.5, 250595.0],
      "WindowCenter": [7091.0, 7132.0, 3611.0, 2343.0, 3555.0, 3544.0, 5363.0, 2312.0, 2335.0, 2333.0, 3572.0, 5374.0, 2292.0, 2266.0, 2328.0, 2311.0, 3538.0, 2298.0, 2340.0, 2340.0, 2289.0, 6985.0, 3588.0, 2352.0, 3599.0, 3516.0, 2319.0, 2319.0, 2290.0, 2266.0, 5338.0, 2291.0, 3541.0, 2310.0, 2305.0, 5357.0, 2311.0, 2274.0, 3509.0, 2320.0, 2275.0, 7048.0, 2371.0, 2328.0, 2342.0, 5350.0, 3553.0, 2275.0, 2336.0, 3498.0, 2300.0, 3553.0, 3554.0, 2360.0, 5334.0, 3520.0, 2304.0, 3561.0, 2282.0, 2348.0, 3569.0, 7075.0, 3574.0, 2279.0, 2363.0, 2280.0, 2279.0, 5402.0, 3546.0, 3537.0, 2318.0, 2363.0, 2351.0, 2313.0, 3484.0, 2334.0, 2344.0, 2279.0, 3483.0, 3556.0, 2304.0, 6989.0, 3537.0, 2295.0, 2268.0, 3540.0, 3585.0, 2284.0, 3463.0, 2296.0, 2373.0, 2262.0, 3521.0, 2253.0, 2311.0, 2356.0, 5361.0, 3534.0, 2317.0, 3519.0, 3487.0, 6958.0, 2269.0, 2264.0, 3519.0, 2263.0, 2375.0],
      "WindowWidth": [15204.0, 15292.0, 8262.0, 5702.0, 8170.0, 8146.0, 11718.0, 5647.0, 5687.0, 5681.0, 8202.0, 11734.0, 5604.0, 5542.0, 5688.0, 5643.0, 8131.0, 5626.0, 5707.0, 5707.0, 5596.0, 14985.0, 8230.0, 5723.0, 8248.0, 8097.0, 5660.0, 5651.0, 5601.0, 5554.0, 11681.0, 5592.0, 8156.0, 5636.0, 5628.0, 11715.0, 5647.0, 5564.0, 8070.0, 5665.0, 5552.0, 15106.0, 5756.0, 5655.0, 5710.0, 11689.0, 8178.0, 5554.0, 5685.0, 8066.0, 5623.0, 8173.0, 8173.0, 5738.0, 11664.0, 8106.0, 5631.0, 8188.0, 5582.0, 5702.0, 8173.0, 15153.0, 8193.0, 5585.0, 5735.0, 5578.0, 5576.0, 11795.0, 8139.0, 8131.0, 5637.0, 5740.0, 5727.0, 5657.0, 8041.0, 5675.0, 5707.0, 5577.0, 8024.0, 8161.0, 5625.0, 14992.0, 8140.0, 5615.0, 5551.0, 8140.0, 8211.0, 5595.0, 7966.0, 5597.0, 5764.0, 5543.0, 8113.0, 5529.0, 5622.0, 5727.0, 11712.0, 8129.0, 5644.0, 8103.0, 8045.0, 14934.0, 5539.0, 5546.0, 8103.0, 5538.0, 5762.0]
    },
    "slices": {}
  }
}