{
  "AcquisitionMatrixPE": 110,
  "AcquisitionNumber": 1,
  "AcquisitionTime": "10:53:40.647500",
  "BandwidthPerPixelPhaseEncode": 12.987,
  "BaseResolution": 110,
  "BodyPartExamined": "BRAIN",
  "CoilCombinationMethod": "Sum of Squares",
  "ConsistencyInfo": "N4_VE11C_LATEST_20160120",
  "ConversionSoftware": "dcm2niix",
  "ConversionSoftwareVersion": "v1.0.20211006",
  "DerivedVendorReportedEchoSpacing": 0.000700001,
  "DeviceSerialNumber": "167006",
  "DiffusionScheme": "Monopolar",
  "DwellTime": 2.7e-06,
  "EchoTime": 0.0816,
  "EchoTrainLength": 83,
  "EffectiveEchoSpacing": 0.000700001,
  "FlipAngle": 78,
  "HeudiconvVersion": "0.5.3.post569+g418601f",
  "ImageComments": "Unaliased MB3/PE3/LB SENSE1",
  "ImageOrientationPatientDICOM": [0.998198, 0.0558316, 0.0220046, -0.04882, 0.968725, -0.243287],
  "ImageOrientationText": "Tra>Cor(-14.0)>Sag(2.0)",
  "ImageType": [
    "ORIGINAL",
    "PRIMARY",
    "DIFFUSION",
    "NONE",
    "MB",
    "ND",
    "MOSAIC"
],
  "ImagingFrequency": 123.259,
  "InPlanePhaseEncodingDirectionDICOM": "COL",
  "InstitutionAddress": "Chemin Queen-Mary 4565,Montreal,District,CA,H3W 1W5",
  "InstitutionName": "IUGM",
  "InstitutionalDepartmentName": "Department",
  "MRAcquisitionType": "2D",
  "MagneticFieldStrength": 3,
  "Manufacturer": "Siemens",
  "ManufacturersModelName": "Prisma_fit",
  "MatrixCoilMode": "SENSE",
  "Modality": "MR",
  "MultibandAccelerationFactor": 3,
  "PartialFourier": 0.75,
  "PatientPosition": "HFS",
  "PercentPhaseFOV": 100,
  "PercentSampling": 100,
  "PhaseEncodingDirection": "j-",
  "PhaseEncodingSteps": 83,
  "PhaseResolution": 1,
  "PixelBandwidth": 1685,
  "ProcedureStepDescription": "anat^generic",
  "ProtocolName": "dMRI_dir98_AP_test_cmrr",
  "PulseSequenceDetails": "%CustomerSeq%\\cmrr_mbep2d_diff",
  "ReceiveCoilActiveElements": "HC1-6",
  "ReceiveCoilName": "HeadNeck_64",
  "ReconMatrixPE": 110,
  "RepetitionTime": 2.334,
  "SAR": 0.11449,
  "ScanOptions": "PFP\\EXT",
  "ScanningSequence": "EP",
  "SequenceName": "ep_b5#1",
  "SequenceVariant": "SK\\SS",
  "SeriesDescription": "dMRI_dir98_AP_test_cmrr",
  "SeriesNumber": 7,
  "ShimSetting": [633, -7224, -8826, 697, 44, 13, 84, 5],
  "SliceThickness": 2,
  "SliceTiming": [0, 1.2175, 0.1225, 1.34, 0.2425, 1.46, 0.365, 1.5825, 0.4875, 1.705, 0.6075, 1.825, 0.73, 1.9475, 0.8525, 2.07, 0.975, 2.1925, 1.095, 0, 1.2175, 0.1225, 1.34, 0.2425, 1.46, 0.365, 1.5825, 0.4875, 1.705, 0.6075, 1.825, 0.73, 1.9475, 0.8525, 2.07, 0.975, 2.1925, 1.095, 0, 1.2175, 0.1225, 1.34, 0.2425, 1.46, 0.365, 1.5825, 0.4875, 1.705, 0.6075, 1.825, 0.73, 1.9475, 0.8525, 2.07, 0.975, 2.1925, 1.095],
  "SoftwareVersions": "syngo MR E11",
  "SpacingBetweenSlices": 2,
  "StationName": "MRC35049",
  "TotalReadoutTime": 0.0763001,
  "TxRefAmp": 205.796,
  "WipMemBlock": "325c937a-08fd-4d5c-8ca4-9d31e017ff08||Sequence: R016 ve11c/master r/e634e98; Dec 19 2017 11:11:25 by eja",
  "dcmmeta_affine": [
    [-1.9963953495025635, -0.09763995558023453, 0.06979896873235703, 116.38898468017578],
    [-0.11166311800479889, 1.9374498128890991, -0.483549028635025, -76.05345916748047],
    [0.04400914907455444, 0.48657453060150146, 1.9394092559814453, -65.84097290039062],
    [0.0, 0.0, 0.0, 1.0]
],
  "dcmmeta_reorient_transform": [
    [0.0, -1.0, 0.0, 109.0],
    [1.0, 0.0, 0.0, 0.0],
    [0.0, 0.0, 1.0, 0.0],
    [0.0, 0.0, 0.0, 1.0]
],
  "dcmmeta_shape": [110, 110, 57, 99],
  "dcmmeta_slice_dim": 2,
  "dcmmeta_version": 0.6,
  "global": {
    "const": {
      "AcquisitionMatrix": [110, 0, 0, 110],
      "AngioFlag": "N",
      "BitsAllocated": 16,
      "BitsStored": 16,
      "BodyPartExamined": "BRAIN",
      "CardiacNumberOfImages": 1,
      "Columns": 880,
      "EchoNumbers": 1,
      "EchoTime": 81.6,
      "EchoTrainLength": 83,
      "FlipAngle": 78.0,
      "HighBit": 15,
      "ImageOrientationPatient": [0.99819769370383, 0.05583155925205, 0.0220045739754, -0.0488199772461, 0.9687248927876, -0.2432872621313],
      "ImagePositionPatient": [-836.76706831728, -924.03703260751, 157.58331879984],
      "ImageType": [
        "ORIGINAL",
        "PRIMARY",
        "DIFFUSION",
        "NONE",
        "MB",
        "ND",
        "MOSAIC"
],
      "ImagedNucleus": "1H",
      "ImagingFrequency": 123.258912,
      "InPlanePhaseEncodingDirection": "COL",
      "MRAcquisitionType": "2D",
      "MagneticFieldStrength": 3.0,
      "Manufacturer": "SIEMENS",
      "ManufacturerModelName": "Prisma_fit",
      "Modality": "MR",
      "NominalInterval": 0,
      "NumberOfAverages": 1.0,
      "NumberOfPhaseEncodingSteps": 83,
      "PercentPhaseFieldOfView": 100.0,
      "PercentSampling": 100.0,
      "PerformedProcedureStepStartTime": "102700.003000",
      "PhotometricInterpretation": "MONOCHROME2",
      "PixelBandwidth": 1685.0,
      "PixelRepresentation": 0,
      "PixelSpacing": [2.0, 2.0],
      "ProtocolName": "dMRI_dir98_AP_test_cmrr",
      "RepetitionTime": 2334.0,
      "Rows": 880,
      "SAR": 0.11448988849784,
      "SamplesPerPixel": 1,
      "ScanOptions": [
        "PFP",
        "EXT"
],
      "ScanningSequence": "EP",
      "SequenceVariant": [
        "SK",
        "SS"
],
      "SeriesDescription": "dMRI_dir98_AP_test_cmrr",
      "SeriesNumber": 7,
      "SeriesTime": "105434.126000",
      "SliceLocation": -41.396593829553,
      "SliceThickness": 2.0,
      "SmallestImagePixelValue": 0,
      "SoftwareVersions": "syngo MR E11",
      "SpacingBetweenSlices": 1.9999999614045,
      "SpecificCharacterSet": "ISO_IR 100",
      "StudyID": "1",
      "StudyTime": "102659.909000",
      "TransmitCoilName": "Body",
      "VariableFlipAngleFlag": "N",
      "WindowCenterWidthExplanation": "Algo1",
      "dBdt": 0.0},
    "slices": {}
  },
  "time": {
    "samples": {
      "AcquisitionNumber": [1, 2, 3, 4, 5, 6, 7, 8, 9, 10, 11, 12, 13, 14, 15, 16, 17, 18, 19, 20, 21, 22, 23, 24, 25, 26, 27, 28, 29, 30, 31, 32, 33, 34, 35, 36, 37, 38, 39, 40, 41, 42, 43, 44, 45, 46, 47, 48, 49, 50, 51, 52, 53, 54, 55, 56, 57, 58, 59, 60, 61, 62, 63, 64, 65, 66, 67, 68, 69, 70, 71, 72, 73, 74, 75, 76, 77, 78, 79, 80, 81, 82, 83, 84, 85, 86, 87, 88, 89, 90, 91, 92, 93, 94, 95, 96, 97, 98, 99],
      "AcquisitionTime": ["105340.647500", "105342.980000", "105345.315000", "105347.650000", "105349.982500", "105352.317500", "105354.650000", "105356.985000", "105359.320000", "105401.652500", "105403.987500", "105406.320000", "105408.655000", "105410.990000", "105413.322500", "105415.657500", "105417.990000", "105420.325000", "105422.660000", "105424.992500", "105427.327500", "105429.660000", "105431.995000", "105434.330000", "105436.662500", "105438.997500", "105441.330000", "105443.665000", "105446.000000", "105448.332500", "105450.667500", "105453.000000", "105455.335000", "105457.670000", "105500.002500", "105502.337500", "105504.670000", "105507.005000", "105509.340000", "105511.672500", "105514.007500", "105516.340000", "105518.675000", "105521.010000", "105523.342500", "105525.677500", "105528.010000", "105530.345000", "105532.680000", "105535.012500", "105537.347500", "105539.680000", "105542.015000", "105544.350000", "105546.682500", "105549.017500", "105551.350000", "105553.685000", "105556.020000", "105558.352500", "105600.687500", "105603.020000", "105605.355000", "105607.690000", "105610.022500", "105612.357500", "105614.690000", "105617.025000", "105619.360000", "105621.692500", "105624.027500", "105626.360000", "105628.695000", "105631.030000", "105633.362500", "105635.697500", "105638.030000", "105640.365000", "105642.700000", "105645.032500", "105647.367500", "105649.700000", "105652.035000", "105654.370000", "105656.702500", "105659.037500", "105701.370000", "105703.705000", "105706.040000", "105708.372500", "105710.707500", "105713.040000", "105715.375000", "105717.710000", "105720.042500", "105722.377500", "105724.710000", "105727.045000", "105729.380000"],
      "ContentTime": ["105434.129000", "105434.133000", "105434.136000", "105434.144000", "105434.147000", "105434.151000", "105434.154000", "105434.157000", "105434.160000", "105434.169000", "105434.179000", "105434.182000", "105434.185000", "105434.189000", "105434.193000", "105434.196000", "105434.199000", "105434.202000", "105434.205000", "105434.208000", "105434.211000", "105434.215000", "105534.102000", "105534.106000", "105534.109000", "105534.112000", "105534.115000", "105534.119000", "105534.123000", "105534.126000", "105534.129000", "105534.132000", "105534.141000", "105534.144000", "105534.147000", "105534.151000", "105534.155000", "105534.158000", "105534.161000", "105534.165000", "105534.168000", "105534.171000", "105534.174000", "105534.177000", "105534.180000", "105534.183000", "105534.186000", "105534.189000", "105634.102000", "105634.105000", "105634.108000", "105634.111000", "105634.114000", "105634.118000", "105634.121000", "105634.124000", "105634.127000", "105634.130000", "105634.133000", "105634.136000", "105634.139000", "105634.142000", "105634.145000", "105634.148000", "105634.151000", "105634.154000", "105634.157000", "105634.160000", "105634.163000", "105634.167000", "105634.170000", "105634.173000", "105634.176000", "105734.101000", "105734.105000", "105734.109000", "105734.113000", "105734.116000", "105734.119000", "105734.122000", "105734.126000", "105734.129000", "105734.132000", "105734.135000", "105734.149000", "105734.152000", "105734.156000", "105734.160000", "105734.163000", "105734.166000", "105734.170000", "105734.173000", "105734.176000", "105734.179000", "105734.182000", "105734.185000", "105734.189000", "105734.193000", "105734.196000"],
      "InstanceCreationTime": ["105434.129000", "105434.133000", "105434.136000", "105434.144000", "105434.147000", "105434.151000", "105434.154000", "105434.157000", "105434.160000", "105434.169000", "105434.179000", "105434.182000", "105434.185000", "105434.189000", "105434.193000", "105434.196000", "105434.199000", "105434.202000", "105434.205000", "105434.208000", "105434.211000", "105434.215000", "105534.102000", "105534.106000", "105534.109000", "105534.112000", "105534.115000", "105534.119000", "105534.123000", "105534.126000", "105534.129000", "105534.132000", "105534.141000", "105534.144000", "105534.147000", "105534.151000", "105534.155000", "105534.158000", "105534.161000", "105534.165000", "105534.168000", "105534.171000", "105534.174000", "105534.177000", "105534.180000", "105534.183000", "105534.186000", "105534.189000", "105634.102000", "105634.105000", "105634.108000", "105634.111000", "105634.114000", "105634.118000", "105634.121000", "105634.124000", "105634.127000", "105634.130000", "105634.133000", "105634.136000", "105634.139000", "105634.142000", "105634.145000", "105634.148000", "105634.151000", "105634.154000", "105634.157000", "105634.160000", "105634.163000", "105634.167000", "105634.170000", "105634.173000", "105634.176000", "105734.101000", "105734.105000", "105734.109000", "105734.113000", "105734.116000", "105734.119000", "105734.122000", "105734.126000", "105734.129000", "105734.132000", "105734.135000", "105734.149000", "105734.152000", "105734.156000", "105734.160000", "105734.163000", "105734.166000", "105734.170000", "105734.173000", "105734.176000", "105734.179000", "105734.182000", "105734.185000", "105734.189000", "105734.193000", "105734.196000"],
      "InstanceNumber": [1, 2, 3, 4, 5, 6, 7, 8, 9, 10, 11, 12, 13, 14, 15, 16, 17, 18, 19, 20, 21, 22, 23, 24, 25, 26, 27, 28, 29, 30, 31, 32, 33, 34, 35, 36, 37, 38, 39, 40, 41, 42, 43, 44, 45, 46, 47, 48, 49, 50, 51, 52, 53, 54, 55, 56, 57, 58, 59, 60, 61, 62, 63, 64, 65, 66, 67, 68, 69, 70, 71, 72, 73, 74, 75, 76, 77, 78, 79, 80, 81, 82, 83, 84, 85, 86, 87, 88, 89, 90, 91, 92, 93, 94, 95, 96, 97, 98, 99],
      "LargestImagePixelValue": [32018, 32213, 9367, 3870, 11428, 4762, 8770, 4130, 9719, 4514, 9809, 4533, 9999, 4437, 9392, 5401, 9862, 32195, 4937, 8795, 4341, 8910, 5446, 9395, 4194, 9096, 4682, 10472, 4573, 9239, 4586, 10337, 4997, 33012, 9759, 4356, 8904, 4449, 8450, 4394, 10307, 4099, 9696, 4431, 8968, 4372, 9707, 5077, 10556, 31445, 5277, 9215, 4170, 9686, 5591, 9169, 4468, 9106, 4844, 10347, 4629, 9465, 4947, 9022, 5292, 33144, 10109, 4742, 9155, 4201, 10820, 5707, 9465, 4583, 9690, 4544, 8874, 4082, 8868, 4316, 9329, 32340, 4533, 9776, 4235, 10499, 4647, 8909, 4102, 9306, 4510, 10298, 4420, 9978, 6067, 9592, 4958, 9448, 4884],
      "SequenceName": [
 "ep_b5#1",
 "ep_b5#1",
 "ep_b1490#2",
 "ep_b2990#3",
 "ep_b1495#4",
 "ep_b3005#5",
 "ep_b1500#6",
 "ep_b2990#7",
 "ep_b1495#8",
 "ep_b3005#9",
 "ep_b1490#10",
 "ep_b2995#11",
 "ep_b1490#12",
 "ep_b2990#13",
 "ep_b1500#14",
 "ep_b2985#15",
 "ep_b1500#16",
 "ep_b5#17",
 "ep_b3005#18",
 "ep_b1490#19",
 "ep_b2995#20",
 "ep_b1500#21",
 "ep_b3000#22",
 "ep_b1495#23",
 "ep_b3005#24",
 "ep_b1490#25",
 "ep_b2985#26",
 "ep_b1505#27",
 "ep_b2990#28",
 "ep_b1500#29",
 "ep_b3000#30",
 "ep_b1490#31",
 "ep_b3000#32",
 "ep_b5#33",
 "ep_b1505#34",
 "ep_b3000#35",
 "ep_b1495#36",
 "ep_b2985#37",
 "ep_b1495#38",
 "ep_b2995#39",
 "ep_b1500#40",
 "ep_b2995#41",
 "ep_b1500#42",
 "ep_b2990#43",
 "ep_b1495#44",
 "ep_b3000#45",
 "ep_b1495#46",
 "ep_b3000#47",
 "ep_b1490#48",
 "ep_b5#49",
 "ep_b3005#50",
 "ep_b1500#51",
 "ep_b2990#52",
 "ep_b1505#53",
 "ep_b2995#54",
 "ep_b1495#55",
 "ep_b2990#56",
 "ep_b1490#57",
 "ep_b2995#58",
 "ep_b1500#59",
 "ep_b3000#60",
 "ep_b1500#61",
 "ep_b2985#62",
 "ep_b1500#63",
 "ep_b2990#64",
 "ep_b5#65",
 "ep_b1505#66",
 "ep_b3005#67",
 "ep_b1495#68",
 "ep_b3000#69",
 "ep_b1505#70",
 "ep_b3005#71",
 "ep_b1500#72",
 "ep_b3000#73",
 "ep_b1495#74",
 "ep_b2995#75",
 "ep_b1495#76",
 "ep_b2995#77",
 "ep_b1500#78",
 "ep_b3000#79",
 "ep_b1495#80",
 "ep_b5#81",
 "ep_b2990#82",
 "ep_b1500#83",
 "ep_b2985#84",
 "ep_b1495#85",
 "ep_b2995#86",
 "ep_b1495#87",
 "ep_b2995#88",
 "ep_b1490#89",
 "ep_b2985#90",
 "ep_b1500#91",
 "ep_b3000#92",
 "ep_b1490#93",
 "ep_b3000#94",
 "ep_b1495#95",
 "ep_b2990#96",
 "ep_b1500#97",
 "ep_b3000#98"
],
      "TriggerTime": [13297.5, 15630.0, 17965.0, 20297.5, 22632.5, 24967.5, 27300.0, 29635.0, 31967.5, 34302.5, 36637.5, 38970.0, 41305.0, 43637.5, 45972.5, 48307.5, 50640.0, 52975.0, 55307.5, 57642.5, 59977.5, 62310.0, 64645.0, 66977.5, 69312.5, 71647.5, 73980.0, 76315.0, 78647.5, 80982.5, 83317.5, 85650.0, 87985.0, 90317.5, 92652.5, 94987.5, 97320.0, 99655.0, 101987.5, 104322.5, 106657.5, 108990.0, 111325.0, 113657.5, 115992.5, 118327.5, 120660.0, 122995.0, 125327.5, 127662.5, 129997.5, 132330.0, 134665.0, 136997.5, 139332.5, 141667.5, 144000.0, 146335.0, 148667.5, 151002.5, 153337.5, 155670.0, 158005.0, 160337.5, 162672.5, 165007.5, 167340.0, 169675.0, 172007.5, 174342.5, 176677.5, 179010.0, 181345.0, 183677.5, 186012.5, 188347.5, 190680.0, 193015.0, 195347.5, 197682.5, 200017.5, 202350.0, 204685.0, 207017.5, 209352.5, 211687.5, 214020.0, 216355.0, 218687.5, 221022.5, 223357.5, 225690.0, 228025.0, 230357.5, 232692.5, 235027.5, 237360.0, 239695.0, 242027.5],
      "WindowCenter": [6822.0, 6855.0, 2649.0, 1525.0, 2754.0, 1592.0, 2659.0, 1527.0, 2655.0, 1529.0, 2652.0, 1567.0, 2720.0, 1556.0, 2641.0, 1604.0, 2650.0, 6778.0, 1561.0, 2659.0, 1550.0, 2665.0, 1609.0, 2646.0, 1551.0, 2623.0, 1557.0, 2713.0, 1572.0, 2663.0, 1533.0, 2706.0, 1607.0, 6811.0, 2670.0, 1533.0, 2614.0, 1546.0, 2634.0, 1583.0, 2687.0, 1526.0, 2642.0, 1566.0, 2644.0, 1540.0, 2659.0, 1582.0, 2707.0, 6800.0, 1599.0, 2680.0, 1544.0, 2632.0, 1609.0, 2660.0, 1593.0, 2680.0, 1542.0, 2686.0, 1535.0, 2621.0, 1540.0, 2691.0, 1624.0, 6796.0, 2679.0, 1580.0, 2670.0, 1552.0, 2706.0, 1619.0, 2672.0, 1529.0, 2651.0, 1553.0, 2673.0, 1566.0, 2675.0, 1527.0, 2650.0, 6830.0, 1576.0, 2666.0, 1532.0, 2731.0, 1581.0, 2638.0, 1552.0, 2648.0, 1558.0, 2693.0, 1568.0, 2732.0, 1599.0, 2664.0, 1585.0, 2652.0, 1595.0],
      "WindowWidth": [14706.0, 14774.0, 6288.0, 3964.0, 6503.0, 4091.0, 6316.0, 3971.0, 6314.0, 3948.0, 6291.0, 4050.0, 6427.0, 4037.0, 6284.0, 4124.0, 6296.0, 14603.0, 4028.0, 6327.0, 4012.0, 6323.0, 4145.0, 6297.0, 4022.0, 6237.0, 4005.0, 6404.0, 4073.0, 6326.0, 3975.0, 6410.0, 4123.0, 14669.0, 6322.0, 3978.0, 6228.0, 3988.0, 6260.0, 4094.0, 6357.0, 3971.0, 6270.0, 4043.0, 6294.0, 3971.0, 6318.0, 4091.0, 6402.0, 14650.0, 4097.0, 6351.0, 4015.0, 6254.0, 4148.0, 6313.0, 4102.0, 6353.0, 3982.0, 6375.0, 3979.0, 6239.0, 3971.0, 6378.0, 4172.0, 14639.0, 6342.0, 4074.0, 6347.0, 4022.0, 6395.0, 4152.0, 6349.0, 3950.0, 6294.0, 4029.0, 6346.0, 4050.0, 6349.0, 3974.0, 6286.0, 14700.0, 4057.0, 6332.0, 3963.0, 6442.0, 4084.0, 6273.0, 4022.0, 6281.0, 4015.0, 6388.0, 4058.0, 6453.0, 4103.0, 6324.0, 4099.0, 6300.0, 4099.0]
    },
    "slices": {}
  }
}