{
  "AcquisitionMatrixPE": 110,
  "AcquisitionNumber": 1,
  "AcquisitionTime": "10:57:50.865000",
  "BandwidthPerPixelPhaseEncode": 12.987,
  "BaseResolution": 110,
  "BodyPartExamined": "BRAIN",
  "CoilCombinationMethod": "Sum of Squares",
  "ConsistencyInfo": "N4_VE11C_LATEST_20160120",
  "ConversionSoftware": "dcm2niix",
  "ConversionSoftwareVersion": "v1.0.20211006",
  "DerivedVendorReportedEchoSpacing": 0.000700001,
  "DeviceSerialNumber": "167006",
  "DiffusionScheme": "Monopolar",
  "DwellTime": 2.7e-06,
  "EchoTime": 0.0816,
  "EchoTrainLength": 83,
  "EffectiveEchoSpacing": 0.000700001,
  "FlipAngle": 78,
  "HeudiconvVersion": "0.5.3.post569+g418601f",
  "ImageComments": "Unaliased MB3/PE3/LB SENSE1",
  "ImageOrientationPatientDICOM": [0.998198, 0.0558316, 0.0220046, -0.04882, 0.968725, -0.243287],
  "ImageOrientationText": "Tra>Cor(-14.0)>Sag(2.0)",
  "ImageType": [
    "ORIGINAL",
    "PRIMARY",
    "DIFFUSION",
    "NONE",
    "MB",
    "ND",
    "MOSAIC"
],
  "ImagingFrequency": 123.259,
  "InPlanePhaseEncodingDirectionDICOM": "COL",
  "InstitutionAddress": "Chemin Queen-Mary 4565,Montreal,District,CA,H3W 1W5",
  "InstitutionName": "IUGM",
  "InstitutionalDepartmentName": "Department",
  "MRAcquisitionType": "2D",
  "MagneticFieldStrength": 3,
  "Manufacturer": "Siemens",
  "ManufacturersModelName": "Prisma_fit",
  "MatrixCoilMode": "SENSE",
  "Modality": "MR",
  "MultibandAccelerationFactor": 3,
  "PartialFourier": 0.75,
  "PatientPosition": "HFS",
  "PercentPhaseFOV": 100,
  "PercentSampling": 100,
  "PhaseEncodingDirection": "j",
  "PhaseEncodingSteps": 83,
  "PhaseResolution": 1,
  "PixelBandwidth": 1685,
  "ProcedureStepDescription": "anat^generic",
  "ProtocolName": "dMRI_dir98_PA_test_cmrr",
  "PulseSequenceDetails": "%CustomerSeq%\\cmrr_mbep2d_diff",
  "ReceiveCoilActiveElements": "HC1-6",
  "ReceiveCoilName": "HeadNeck_64",
  "ReconMatrixPE": 110,
  "RepetitionTime": 2.334,
  "SAR": 0.11449,
  "ScanOptions": "PFP\\EXT",
  "ScanningSequence": "EP",
  "SequenceName": "ep_b5#1",
  "SequenceVariant": "SK\\SS",
  "SeriesDescription": "dMRI_dir98_PA_test_cmrr",
  "SeriesNumber": 11,
  "ShimSetting": [633, -7224, -8826, 697, 44, 13, 84, 5],
  "SliceThickness": 2,
  "SliceTiming": [0, 1.2175, 0.12, 1.3375, 0.2425, 1.46, 0.365, 1.5825, 0.485, 1.7025, 0.6075, 1.825, 0.73, 1.9475, 0.8525, 2.07, 0.9725, 2.19, 1.095, 0, 1.2175, 0.12, 1.3375, 0.2425, 1.46, 0.365, 1.5825, 0.485, 1.7025, 0.6075, 1.825, 0.73, 1.9475, 0.8525, 2.07, 0.9725, 2.19, 1.095, 0, 1.2175, 0.12, 1.3375, 0.2425, 1.46, 0.365, 1.5825, 0.485, 1.7025, 0.6075, 1.825, 0.73, 1.9475, 0.8525, 2.07, 0.9725, 2.19, 1.095],
  "SoftwareVersions": "syngo MR E11",
  "SpacingBetweenSlices": 2,
  "StationName": "MRC35049",
  "TotalReadoutTime": 0.0763001,
  "TxRefAmp": 205.796,
  "WipMemBlock": "5292d3eb-34ad-43a3-ae9e-b748687d9dd9||Sequence: R016 ve11c/master r/e634e98; Dec 19 2017 11:11:25 by eja",
  "dcmmeta_affine": [
    [-1.9963953495025635, -0.09763995558023453, 0.06979896873235703, 116.38898468017578],
    [-0.11166311800479889, 1.9374498128890991, -0.483549028635025, -76.05345916748047],
    [0.04400914907455444, 0.48657453060150146, 1.9394092559814453, -65.84097290039062],
    [0.0, 0.0, 0.0, 1.0]
],
  "dcmmeta_reorient_transform": [
    [0.0, -1.0, 0.0, 109.0],
    [1.0, 0.0, 0.0, 0.0],
    [0.0, 0.0, 1.0, 0.0],
    [0.0, 0.0, 0.0, 1.0]
],
  "dcmmeta_shape": [110, 110, 57, 99],
  "dcmmeta_slice_dim": 2,
  "dcmmeta_version": 0.6,
  "global": {
    "const": {
      "AcquisitionMatrix": [110, 0, 0, 110],
      "AngioFlag": "N",
      "BitsAllocated": 16,
      "BitsStored": 16,
      "BodyPartExamined": "BRAIN",
      "CardiacNumberOfImages": 1,
      "Columns": 880,
      "EchoNumbers": 1,
      "EchoTime": 81.6,
      "EchoTrainLength": 83,
      "FlipAngle": 78.0,
      "HighBit": 15,
      "ImageOrientationPatient": [0.99819769370383, 0.05583155925205, 0.0220045739754, -0.0488199772461, 0.9687248927876, -0.2432872621313],
      "ImagePositionPatient": [-836.76706831728, -924.03703260751, 157.58331879984],
      "ImageType": [
        "ORIGINAL",
        "PRIMARY",
        "DIFFUSION",
        "NONE",
        "MB",
        "ND",
        "MOSAIC"
],
      "ImagedNucleus": "1H",
      "ImagingFrequency": 123.258917,
      "InPlanePhaseEncodingDirection": "COL",
      "MRAcquisitionType": "2D",
      "MagneticFieldStrength": 3.0,
      "Manufacturer": "SIEMENS",
      "ManufacturerModelName": "Prisma_fit",
      "Modality": "MR",
      "NominalInterval": 0,
      "NumberOfAverages": 1.0,
      "NumberOfPhaseEncodingSteps": 83,
      "PercentPhaseFieldOfView": 100.0,
      "PercentSampling": 100.0,
      "PerformedProcedureStepStartTime": "102700.003000",
      "PhotometricInterpretation": "MONOCHROME2",
      "PixelBandwidth": 1685.0,
      "PixelRepresentation": 0,
      "PixelSpacing": [2.0, 2.0],
      "ProtocolName": "dMRI_dir98_PA_test_cmrr",
      "RepetitionTime": 2334.0,
      "Rows": 880,
      "SAR": 0.11448988849784,
      "SamplesPerPixel": 1,
      "ScanOptions": [
        "PFP",
        "EXT"
],
      "ScanningSequence": "EP",
      "SequenceVariant": [
        "SK",
        "SS"
],
      "SeriesDescription": "dMRI_dir98_PA_test_cmrr",
      "SeriesNumber": 11,
      "SeriesTime": "105850.632000",
      "SliceLocation": -41.396593829553,
      "SliceThickness": 2.0,
      "SmallestImagePixelValue": 0,
      "SoftwareVersions": "syngo MR E11",
      "SpacingBetweenSlices": 1.9999999614045,
      "SpecificCharacterSet": "ISO_IR 100",
      "StudyID": "1",
      "StudyTime": "102659.909000",
      "TransmitCoilName": "Body",
      "VariableFlipAngleFlag": "N",
      "WindowCenterWidthExplanation": "Algo1",
      "dBdt": 0.0},
    "slices": {}
  },
  "time": {
    "samples": {
      "AcquisitionNumber": [1, 2, 3, 4, 5, 6, 7, 8, 9, 10, 11, 12, 13, 14, 15, 16, 17, 18, 19, 20, 21, 22, 23, 24, 25, 26, 27, 28, 29, 30, 31, 32, 33, 34, 35, 36, 37, 38, 39, 40, 41, 42, 43, 44, 45, 46, 47, 48, 49, 50, 51, 52, 53, 54, 55, 56, 57, 58, 59, 60, 61, 62, 63, 64, 65, 66, 67, 68, 69, 70, 71, 72, 73, 74, 75, 76, 77, 78, 79, 80, 81, 82, 83, 84, 85, 86, 87, 88, 89, 90, 91, 92, 93, 94, 95, 96, 97, 98, 99],
      "AcquisitionTime": ["105750.865000", "105753.197500", "105755.532500", "105757.865000", "105800.200000", "105802.535000", "105804.867500", "105807.202500", "105809.535000", "105811.870000", "105814.205000", "105816.537500", "105818.872500", "105821.205000", "105823.540000", "105825.875000", "105828.207500", "105830.542500", "105832.875000", "105835.210000", "105837.545000", "105839.877500", "105842.212500", "105844.545000", "105846.880000", "105849.215000", "105851.547500", "105853.882500", "105856.215000", "105858.550000", "105900.885000", "105903.217500", "105905.552500", "105907.885000", "105910.220000", "105912.555000", "105914.887500", "105917.222500", "105919.555000", "105921.890000", "105924.225000", "105926.557500", "105928.892500", "105931.225000", "105933.560000", "105935.895000", "105938.227500", "105940.562500", "105942.895000", "105945.230000", "105947.565000", "105949.897500", "105952.232500", "105954.565000", "105956.900000", "105959.235000", "110001.567500", "110003.902500", "110006.235000", "110008.570000", "110010.905000", "110013.237500", "110015.572500", "110017.905000", "110020.240000", "110022.575000", "110024.907500", "110027.242500", "110029.575000", "110031.910000", "110034.245000", "110036.577500", "110038.912500", "110041.245000", "110043.580000", "110045.915000", "110048.247500", "110050.582500", "110052.915000", "110055.250000", "110057.585000", "110059.917500", "110102.252500", "110104.585000", "110106.920000", "110109.255000", "110111.587500", "110113.922500", "110116.255000", "110118.590000", "110120.925000", "110123.257500", "110125.592500", "110127.925000", "110130.260000", "110132.595000", "110134.927500", "110137.262500", "110139.595000"],
      "ContentTime": ["105850.635000", "105850.643000", "105850.646000", "105850.649000", "105850.652000", "105850.656000", "105850.659000", "105850.662000", "105850.665000", "105850.668000", "105850.671000", "105850.679000", "105850.682000", "105850.685000", "105850.688000", "105850.691000", "105850.694000", "105850.697000", "105850.700000", "105850.703000", "105850.706000", "105850.709000", "105850.712000", "105850.715000", "105850.719000", "105950.608000", "105950.612000", "105950.615000", "105950.618000", "105950.621000", "105950.624000", "105950.638000", "105950.641000", "105950.644000", "105950.647000", "105950.650000", "105950.654000", "105950.657000", "105950.660000", "105950.663000", "105950.666000", "105950.670000", "105950.673000", "105950.676000", "105950.679000", "105950.682000", "105950.685000", "105950.688000", "105950.692000", "105950.695000", "110010.607000", "110010.610000", "110010.614000", "110010.617000", "110010.620000", "110010.623000", "110010.626000", "110010.629000", "110010.632000", "110110.608000", "110110.611000", "110110.614000", "110110.617000", "110110.621000", "110110.624000", "110110.627000", "110110.630000", "110110.633000", "110110.636000", "110110.639000", "110110.642000", "110110.645000", "110110.648000", "110110.651000", "110110.654000", "110110.657000", "110110.660000", "110110.663000", "110110.666000", "110110.669000", "110110.673000", "110110.676000", "110110.679000", "110110.682000", "110110.685000", "110144.784000", "110144.793000", "110144.796000", "110144.799000", "110144.802000", "110144.810000", "110144.813000", "110144.816000", "110144.819000", "110144.823000", "110144.826000", "110144.829000", "110144.832000", "110144.835000"],
      "InstanceCreationTime": ["105850.635000", "105850.643000", "105850.646000", "105850.649000", "105850.652000", "105850.656000", "105850.659000", "105850.662000", "105850.665000", "105850.668000", "105850.671000", "105850.679000", "105850.682000", "105850.685000", "105850.688000", "105850.691000", "105850.694000", "105850.697000", "105850.700000", "105850.703000", "105850.706000", "105850.709000", "105850.712000", "105850.715000", "105850.719000", "105950.608000", "105950.612000", "105950.615000", "105950.618000", "105950.621000", "105950.624000", "105950.638000", "105950.641000", "105950.644000", "105950.647000", "105950.650000", "105950.654000", "105950.657000", "105950.660000", "105950.663000", "105950.666000", "105950.670000", "105950.673000", "105950.676000", "105950.679000", "105950.682000", "105950.685000", "105950.688000", "105950.692000", "105950.695000", "110010.607000", "110010.610000", "110010.614000", "110010.617000", "110010.620000", "110010.623000", "110010.626000", "110010.629000", "110010.632000", "110110.608000", "110110.611000", "110110.614000", "110110.617000", "110110.621000", "110110.624000", "110110.627000", "110110.630000", "110110.633000", "110110.636000", "110110.639000", "110110.642000", "110110.645000", "110110.648000", "110110.651000", "110110.654000", "110110.657000", "110110.660000", "110110.663000", "110110.666000", "110110.669000", "110110.673000", "110110.676000", "110110.679000", "110110.682000", "110110.685000", "110144.784000", "110144.793000", "110144.796000", "110144.799000", "110144.802000", "110144.810000", "110144.813000", "110144.816000", "110144.819000", "110144.823000", "110144.826000", "110144.829000", "110144.832000", "110144.835000"],
      "InstanceNumber": [1, 2, 3, 4, 5, 6, 7, 8, 9, 10, 11, 12, 13, 14, 15, 16, 17, 18, 19, 20, 21, 22, 23, 24, 25, 26, 27, 28, 29, 30, 31, 32, 33, 34, 35, 36, 37, 38, 39, 40, 41, 42, 43, 44, 45, 46, 47, 48, 49, 50, 51, 52, 53, 54, 55, 56, 57, 58, 59, 60, 61, 62, 63, 64, 65, 66, 67, 68, 69, 70, 71, 72, 73, 74, 75, 76, 77, 78, 79, 80, 81, 82, 83, 84, 85, 86, 87, 88, 89, 90, 91, 92, 93, 94, 95, 96, 97, 98, 99],
      "LargestImagePixelValue": [65535, 65535, 12969, 5527, 13629, 6663, 11537, 6476, 12989, 6235, 14132, 6534, 14184, 6969, 12050, 6888, 13093, 62385, 7353, 13592, 5844, 13740, 7810, 13842, 6880, 12880, 5950, 13724, 6550, 13826, 6418, 12553, 7648, 65535, 12773, 6105, 13860, 6020, 12322, 5768, 13981, 6645, 12171, 6957, 13024, 5333, 13881, 7452, 13300, 59766, 6649, 13506, 6518, 12993, 6922, 12964, 7046, 13411, 6532, 12682, 6149, 12393, 6232, 11672, 7314, 61114, 13490, 7092, 14287, 5295, 13447, 7281, 12478, 5640, 12724, 6716, 13177, 6536, 14266, 5695, 11914, 42846, 6098, 12024, 5764, 13746, 6924, 13199, 5572, 13145, 6385, 13364, 6235, 12400, 6984, 12122, 5957, 12956, 7517],
      "SequenceName": [
 "ep_b5#1",
 "ep_b5#1",
 "ep_b1490#2",
 "ep_b2990#3",
 "ep_b1495#4",
 "ep_b3005#5",
 "ep_b1500#6",
 "ep_b2990#7",
 "ep_b1495#8",
 "ep_b3005#9",
 "ep_b1490#10",
 "ep_b2995#11",
 "ep_b1490#12",
 "ep_b2990#13",
 "ep_b1500#14",
 "ep_b2985#15",
 "ep_b1500#16",
 "ep_b5#17",
 "ep_b3005#18",
 "ep_b1490#19",
 "ep_b2995#20",
 "ep_b1500#21",
 "ep_b3000#22",
 "ep_b1495#23",
 "ep_b3005#24",
 "ep_b1490#25",
 "ep_b2985#26",
 "ep_b1505#27",
 "ep_b2990#28",
 "ep_b1500#29",
 "ep_b3000#30",
 "ep_b1490#31",
 "ep_b3000#32",
 "ep_b5#33",
 "ep_b1505#34",
 "ep_b3000#35",
 "ep_b1495#36",
 "ep_b2985#37",
 "ep_b1495#38",
 "ep_b2995#39",
 "ep_b1500#40",
 "ep_b2995#41",
 "ep_b1500#42",
 "ep_b2990#43",
 "ep_b1495#44",
 "ep_b3000#45",
 "ep_b1495#46",
 "ep_b3000#47",
 "ep_b1490#48",
 "ep_b5#49",
 "ep_b3005#50",
 "ep_b1500#51",
 "ep_b2990#52",
 "ep_b1505#53",
 "ep_b2995#54",
 "ep_b1495#55",
 "ep_b2990#56",
 "ep_b1490#57",
 "ep_b2995#58",
 "ep_b1500#59",
 "ep_b3000#60",
 "ep_b1500#61",
 "ep_b2985#62",
 "ep_b1500#63",
 "ep_b2990#64",
 "ep_b5#65",
 "ep_b1505#66",
 "ep_b3005#67",
 "ep_b1495#68",
 "ep_b3000#69",
 "ep_b1505#70",
 "ep_b3005#71",
 "ep_b1500#72",
 "ep_b3000#73",
 "ep_b1495#74",
 "ep_b2995#75",
 "ep_b1495#76",
 "ep_b2995#77",
 "ep_b1500#78",
 "ep_b3000#79",
 "ep_b1495#80",
 "ep_b5#81",
 "ep_b2990#82",
 "ep_b1500#83",
 "ep_b2985#84",
 "ep_b1495#85",
 "ep_b2995#86",
 "ep_b1495#87",
 "ep_b2995#88",
 "ep_b1490#89",
 "ep_b2985#90",
 "ep_b1500#91",
 "ep_b3000#92",
 "ep_b1490#93",
 "ep_b3000#94",
 "ep_b1495#95",
 "ep_b2990#96",
 "ep_b1500#97",
 "ep_b3000#98"
],
      "TriggerTime": [13295.0, 15630.0, 17965.0, 20297.5, 22632.5, 24965.0, 27300.0, 29635.0, 31967.5, 34302.5, 36635.0, 38970.0, 41305.0, 43637.5, 45972.5, 48305.0, 50640.0, 52975.0, 55307.5, 57642.5, 59975.0, 62310.0, 64645.0, 66977.5, 69312.5, 71645.0, 73980.0, 76315.0, 78647.5, 80982.5, 83315.0, 85650.0, 87985.0, 90317.5, 92652.5, 94985.0, 97320.0, 99655.0, 101987.5, 104322.5, 106655.0, 108990.0, 111325.0, 113657.5, 115992.5, 118325.0, 120660.0, 122995.0, 125327.5, 127662.5, 129995.0, 132330.0, 134665.0, 136997.5, 139332.5, 141665.0, 144000.0, 146335.0, 148667.5, 151002.5, 153335.0, 155670.0, 158005.0, 160337.5, 162672.5, 165005.0, 167340.0, 169675.0, 172007.5, 174342.5, 176675.0, 179010.0, 181345.0, 183677.5, 186012.5, 188345.0, 190680.0, 193015.0, 195347.5, 197682.5, 200015.0, 202350.0, 204685.0, 207017.5, 209352.5, 211685.0, 214020.0, 216355.0, 218687.5, 221022.5, 223355.0, 225690.0, 228025.0, 230357.5, 232692.5, 235025.0, 237360.0, 239695.0, 242027.5],
      "WindowCenter": [7156.0, 7136.0, 2749.0, 1593.0, 2759.0, 1664.0, 2708.0, 1651.0, 2737.0, 1589.0, 2739.0, 1664.0, 2776.0, 1665.0, 2714.0, 1654.0, 2699.0, 7080.0, 1676.0, 2772.0, 1600.0, 2765.0, 1696.0, 2757.0, 1666.0, 2698.0, 1576.0, 2743.0, 1641.0, 2713.0, 1593.0, 2742.0, 1694.0, 7076.0, 2740.0, 1602.0, 2741.0, 1621.0, 2718.0, 1636.0, 2785.0, 1644.0, 2682.0, 1695.0, 2759.0, 1587.0, 2785.0, 1680.0, 2748.0, 7021.0, 1651.0, 2747.0, 1631.0, 2728.0, 1681.0, 2702.0, 1677.0, 2779.0, 1599.0, 2748.0, 1594.0, 2700.0, 1622.0, 2724.0, 1678.0, 7065.0, 2742.0, 1678.0, 2733.0, 1602.0, 2784.0, 1696.0, 2743.0, 1587.0, 2714.0, 1622.0, 2762.0, 1664.0, 2738.0, 1591.0, 2710.0, 6897.0, 1656.0, 2717.0, 1587.0, 2773.0, 1678.0, 2731.0, 1622.0, 2694.0, 1621.0, 2747.0, 1633.0, 2742.0, 1649.0, 2696.0, 1627.0, 2689.0, 1692.0],
      "WindowWidth": [15386.0, 15333.0, 6554.0, 4113.0, 6562.0, 4265.0, 6448.0, 4239.0, 6527.0, 4095.0, 6527.0, 4259.0, 6589.0, 4272.0, 6465.0, 4248.0, 6446.0, 15220.0, 4280.0, 6595.0, 4116.0, 6569.0, 4339.0, 6557.0, 4267.0, 6442.0, 4076.0, 6542.0, 4222.0, 6474.0, 4109.0, 6533.0, 4325.0, 15219.0, 6535.0, 4129.0, 6529.0, 4168.0, 6469.0, 4198.0, 6623.0, 4214.0, 6407.0, 4326.0, 6569.0, 4083.0, 6615.0, 4298.0, 6551.0, 15114.0, 4238.0, 6536.0, 4191.0, 6501.0, 4303.0, 6456.0, 4283.0, 6602.0, 4108.0, 6546.0, 4120.0, 6442.0, 4176.0, 6482.0, 4290.0, 15198.0, 6538.0, 4293.0, 6520.0, 4118.0, 6621.0, 4335.0, 6519.0, 4091.0, 6485.0, 4181.0, 6573.0, 4257.0, 6522.0, 4102.0, 6456.0, 14858.0, 4253.0, 6486.0, 4093.0, 6591.0, 4295.0, 6507.0, 4179.0, 6437.0, 4166.0, 6548.0, 4194.0, 6527.0, 4229.0, 6432.0, 4201.0, 6432.0, 4320.0]
    },
    "slices": {}
  }
}