{
  "AcquisitionMatrixPE": 110,
  "AcquisitionNumber": 1,
  "AcquisitionTime": "15:47:58.845000",
  "BandwidthPerPixelPhaseEncode": 12.987,
  "BaseResolution": 110,
  "BodyPartExamined": "BRAIN",
  "ConsistencyInfo": "N4_VE11C_LATEST_20160120",
  "ConversionSoftware": "dcm2niix",
  "ConversionSoftwareVersion": "v1.0.20190902",
  "DerivedVendorReportedEchoSpacing": 0.000700001,
  "DeviceSerialNumber": "167006",
  "DiffusionScheme": "Monopolar",
  "DwellTime": 2.7e-06,
  "EchoTime": 0.0816,
  "EchoTrainLength": 83,
  "EffectiveEchoSpacing": 0.000700001,
  "FlipAngle": 78,
  "ImageComments": "Unaliased_MB3_PE3_LB_SENSE1",
  "ImageOrientationPatientDICOM": [1, 0, 0, 0, 0.945519, -0.325568],
  "ImageType": [
    "ORIGINAL",
    "PRIMARY",
    "DIFFUSION",
    "NONE",
    "MB",
    "ND",
    "MOSAIC"
],
  "ImagingFrequency": 123.259,
  "InPlanePhaseEncodingDirectionDICOM": "COL",
  "InstitutionAddress": "Chemin_Queen-Mary_4565_Montreal_District_CA_H3W_1W5",
  "InstitutionName": "IUGM",
  "InstitutionalDepartmentName": "Department",
  "MRAcquisitionType": "2D",
  "MagneticFieldStrength": 3,
  "Manufacturer": "Siemens",
  "ManufacturersModelName": "Prisma_fit",
  "Modality": "MR",
  "MultibandAccelerationFactor": 3,
  "PartialFourier": 0.75,
  "PatientPosition": "HFS",
  "PercentPhaseFOV": 100,
  "PhaseEncodingDirection": "j",
  "PhaseEncodingSteps": 83,
  "PhaseResolution": 1,
  "PixelBandwidth": 1685,
  "ProcedureStepDescription": "hcptrt_generic",
  "ProtocolName": "dMRI_dir98_PA_test_cmrr",
  "PulseSequenceDetails": "%CustomerSeq%_cmrr_mbep2d_diff",
  "ReceiveCoilActiveElements": "HC1-6",
  "ReceiveCoilName": "HeadNeck_64",
  "ReconMatrixPE": 110,
  "RepetitionTime": 2.334,
  "SAR": 0.122131,
  "ScanOptions": "PFP_EXT",
  "ScanningSequence": "EP",
  "SequenceName": "ep_b5#1",
  "SequenceVariant": "SK_SS",
  "SeriesDescription": "dMRI_dir98_PA_test_cmrr",
  "SeriesNumber": 16,
  "ShimSetting": [632, -7279, -8830, 636, 29, -271, 5, -31],
  "SliceThickness": 2,
  "SliceTiming": [0, 1.22, 0.1225, 1.34, 0.245, 1.4625, 0.3675, 1.585, 0.4875, 1.705, 0.61, 1.8275, 0.7325, 1.95, 0.8525, 2.0725, 0.975, 2.1925, 1.0975, 0, 1.22, 0.1225, 1.34, 0.245, 1.4625, 0.3675, 1.585, 0.4875, 1.705, 0.61, 1.8275, 0.7325, 1.95, 0.8525, 2.0725, 0.975, 2.1925, 1.0975, 0, 1.22, 0.1225, 1.34, 0.245, 1.4625, 0.3675, 1.585, 0.4875, 1.705, 0.61, 1.8275, 0.7325, 1.95, 0.8525, 2.0725, 0.975, 2.1925, 1.0975],
  "SoftwareVersions": "syngo_MR_E11",
  "SpacingBetweenSlices": 2,
  "StationName": "MRC35049",
  "TotalReadoutTime": 0.0763001,
  "TxRefAmp": 227.608,
  "WipMemBlock": "08b74fd2-b1e8-4fde-8440-f6400dc01198||Sequence: R016 ve11c/master r/e634e98; Dec 19 2017 11:11:25 by eja",
  "dcmmeta_affine": [
    [-2.0, 0.0, 0.0, 109.49686431884766],
    [0.0, 1.891037106513977, -0.6511363387107849, -74.5161361694336],
    [0.0, 0.6511363387107849, 1.891037106513977, -66.3695068359375],
    [0.0, 0.0, 0.0, 1.0]
],
  "dcmmeta_reorient_transform": [
    [0.0, -1.0, 0.0, 109.0],
    [1.0, 0.0, 0.0, 0.0],
    [0.0, 0.0, 1.0, 0.0],
    [0.0, 0.0, 0.0, 1.0]
],
  "dcmmeta_shape": [110, 110, 57, 99],
  "dcmmeta_slice_dim": 2,
  "dcmmeta_version": 0.6,
  "global": {
    "const": {
      "AcquisitionMatrix": [110, 0, 0, 110],
      "AngioFlag": "N",
      "BitsAllocated": 16,
      "BitsStored": 16,
      "BodyPartExamined": "BRAIN",
      "CardiacNumberOfImages": 1,
      "Columns": 880,
      "EchoNumbers": 1,
      "EchoTime": 81.6,
      "EchoTrainLength": 83,
      "FlipAngle": 78.0,
      "HighBit": 15,
      "ImageOrientationPatient": [1.0, 0.0, 0.0, 0.0, 0.94551857135949, -0.3255681667705],
      "ImagePositionPatient": [-879.49686384201, -859.65621157077, 255.29184161645],
      "ImageType": [
        "ORIGINAL",
        "PRIMARY",
        "DIFFUSION",
        "NONE",
        "MB",
        "ND",
        "MOSAIC"
],
      "ImagedNucleus": "1H",
      "ImagingFrequency": 123.259068,
      "InPlanePhaseEncodingDirection": "COL",
      "MRAcquisitionType": "2D",
      "MagneticFieldStrength": 3.0,
      "Manufacturer": "SIEMENS",
      "ManufacturerModelName": "Prisma_fit",
      "Modality": "MR",
      "NominalInterval": 0,
      "NumberOfAverages": 1.0,
      "NumberOfPhaseEncodingSteps": 83,
      "PercentPhaseFieldOfView": 100.0,
      "PercentSampling": 100.0,
      "PerformedProcedureStepStartTime": "144816.565000",
      "PhotometricInterpretation": "MONOCHROME2",
      "PixelBandwidth": 1685.0,
      "PixelRepresentation": 0,
      "PixelSpacing": [2.0, 2.0],
      "ProtocolName": "dMRI_dir98_PA_test_cmrr",
      "RepetitionTime": 2334.0,
      "Rows": 880,
      "SAR": 0.12213059525656,
      "SamplesPerPixel": 1,
      "ScanOptions": [
        "PFP",
        "EXT"
],
      "ScanningSequence": "EP",
      "SequenceVariant": [
        "SK",
        "SS"
],
      "SeriesDescription": "dMRI_dir98_PA_test_cmrr",
      "SeriesNumber": 16,
      "SeriesTime": "154854.719000",
      "SliceLocation": -38.493519489059,
      "SliceThickness": 2.0,
      "SmallestImagePixelValue": 0,
      "SoftwareVersions": "syngo MR E11",
      "SpacingBetweenSlices": 1.9999999752361,
      "SpecificCharacterSet": "ISO_IR 100",
      "StudyID": "1",
      "StudyTime": "144816.502000",
      "TransmitCoilName": "Body",
      "VariableFlipAngleFlag": "N",
      "WindowCenterWidthExplanation": "Algo1",
      "dBdt": 0.0},
    "slices": {}
  },
  "time": {
    "samples": {
      "AcquisitionNumber": [1, 2, 3, 4, 5, 6, 7, 8, 9, 10, 11, 12, 13, 14, 15, 16, 17, 18, 19, 20, 21, 22, 23, 24, 25, 26, 27, 28, 29, 30, 31, 32, 33, 34, 35, 36, 37, 38, 39, 40, 41, 42, 43, 44, 45, 46, 47, 48, 49, 50, 51, 52, 53, 54, 55, 56, 57, 58, 59, 60, 61, 62, 63, 64, 65, 66, 67, 68, 69, 70, 71, 72, 73, 74, 75, 76, 77, 78, 79, 80, 81, 82, 83, 84, 85, 86, 87, 88, 89, 90, 91, 92, 93, 94, 95, 96, 97, 98, 99],
      "AcquisitionTime": ["154758.845000", "154801.180000", "154803.515000", "154805.847500", "154808.182500", "154810.515000", "154812.850000", "154815.185000", "154817.517500", "154819.852500", "154822.185000", "154824.520000", "154826.855000", "154829.187500", "154831.522500", "154833.855000", "154836.190000", "154838.525000", "154840.857500", "154843.192500", "154845.525000", "154847.860000", "154850.195000", "154852.527500", "154854.862500", "154857.195000", "154859.530000", "154901.865000", "154904.197500", "154906.532500", "154908.865000", "154911.200000", "154913.535000", "154915.867500", "154918.202500", "154920.535000", "154922.870000", "154925.205000", "154927.537500", "154929.872500", "154932.205000", "154934.540000", "154936.875000", "154939.207500", "154941.542500", "154943.875000", "154946.210000", "154948.545000", "154950.877500", "154953.212500", "154955.545000", "154957.880000", "155000.215000", "155002.547500", "155004.882500", "155007.215000", "155009.550000", "155011.885000", "155014.217500", "155016.552500", "155018.885000", "155021.220000", "155023.555000", "155025.887500", "155028.222500", "155030.555000", "155032.890000", "155035.225000", "155037.557500", "155039.892500", "155042.225000", "155044.560000", "155046.895000", "155049.227500", "155051.562500", "155053.895000", "155056.230000", "155058.565000", "155100.897500", "155103.232500", "155105.565000", "155107.900000", "155110.235000", "155112.567500", "155114.902500", "155117.235000", "155119.570000", "155121.905000", "155124.237500", "155126.572500", "155128.905000", "155131.240000", "155133.575000", "155135.907500", "155138.242500", "155140.575000", "155142.910000", "155145.245000", "155147.577500"],
      "ContentTime": ["154854.722000", "154854.726000", "154854.729000", "154854.732000", "154854.735000", "154854.738000", "154854.741000", "154854.744000", "154854.747000", "154854.750000", "154854.753000", "154854.764000", "154854.768000", "154854.771000", "154854.774000", "154854.777000", "154854.780000", "154854.783000", "154854.786000", "154854.789000", "154854.798000", "154854.801000", "154854.804000", "154954.691000", "154954.695000", "154954.698000", "154954.701000", "154954.704000", "154954.707000", "154954.710000", "154954.713000", "154954.716000", "154954.719000", "154954.722000", "154954.725000", "154954.728000", "154954.731000", "154954.734000", "154954.737000", "154954.740000", "154954.743000", "154954.760000", "154954.763000", "154954.766000", "154954.770000", "154954.773000", "154954.776000", "154954.779000", "154954.782000", "155054.692000", "155054.695000", "155054.698000", "155054.701000", "155054.705000", "155054.708000", "155054.711000", "155054.714000", "155054.717000", "155054.720000", "155054.723000", "155054.726000", "155054.729000", "155054.732000", "155054.742000", "155054.745000", "155054.748000", "155054.751000", "155054.754000", "155054.757000", "155054.760000", "155054.763000", "155054.766000", "155054.769000", "155054.772000", "155152.891000", "155152.894000", "155152.898000", "155152.901000", "155152.904000", "155152.907000", "155152.910000", "155152.913000", "155152.916000", "155152.919000", "155152.922000", "155152.925000", "155152.928000", "155152.931000", "155152.934000", "155152.937000", "155152.940000", "155152.943000", "155152.946000", "155152.950000", "155152.953000", "155152.956000", "155152.959000", "155152.962000", "155152.965000"],
      "InstanceCreationTime": ["154854.722000", "154854.726000", "154854.729000", "154854.732000", "154854.735000", "154854.738000", "154854.741000", "154854.744000", "154854.747000", "154854.750000", "154854.753000", "154854.764000", "154854.768000", "154854.771000", "154854.774000", "154854.777000", "154854.780000", "154854.783000", "154854.786000", "154854.789000", "154854.798000", "154854.801000", "154854.804000", "154954.691000", "154954.695000", "154954.698000", "154954.701000", "154954.704000", "154954.707000", "154954.710000", "154954.713000", "154954.716000", "154954.719000", "154954.722000", "154954.725000", "154954.728000", "154954.731000", "154954.734000", "154954.737000", "154954.740000", "154954.743000", "154954.760000", "154954.763000", "154954.766000", "154954.770000", "154954.773000", "154954.776000", "154954.779000", "154954.782000", "155054.692000", "155054.695000", "155054.698000", "155054.701000", "155054.705000", "155054.708000", "155054.711000", "155054.714000", "155054.717000", "155054.720000", "155054.723000", "155054.726000", "155054.729000", "155054.732000", "155054.742000", "155054.745000", "155054.748000", "155054.751000", "155054.754000", "155054.757000", "155054.760000", "155054.763000", "155054.766000", "155054.769000", "155054.772000", "155152.891000", "155152.894000", "155152.898000", "155152.901000", "155152.904000", "155152.907000", "155152.910000", "155152.913000", "155152.916000", "155152.919000", "155152.922000", "155152.925000", "155152.928000", "155152.931000", "155152.934000", "155152.937000", "155152.940000", "155152.943000", "155152.946000", "155152.950000", "155152.953000", "155152.956000", "155152.959000", "155152.962000", "155152.965000"],
      "InstanceNumber": [1, 2, 3, 4, 5, 6, 7, 8, 9, 10, 11, 12, 13, 14, 15, 16, 17, 18, 19, 20, 21, 22, 23, 24, 25, 26, 27, 28, 29, 30, 31, 32, 33, 34, 35, 36, 37, 38, 39, 40, 41, 42, 43, 44, 45, 46, 47, 48, 49, 50, 51, 52, 53, 54, 55, 56, 57, 58, 59, 60, 61, 62, 63, 64, 65, 66, 67, 68, 69, 70, 71, 72, 73, 74, 75, 76, 77, 78, 79, 80, 81, 82, 83, 84, 85, 86, 87, 88, 89, 90, 91, 92, 93, 94, 95, 96, 97, 98, 99],
      "LargestImagePixelValue": [48516, 52782, 12921, 5429, 10963, 6277, 11642, 5516, 11432, 5628, 11271, 5916, 13697, 5828, 10584, 6708, 11166, 56047, 7806, 12906, 5076, 12027, 6705, 11490, 6829, 11229, 5128, 12605, 5669, 12686, 6896, 11120, 7923, 58567, 12845, 5716, 11353, 5958, 11008, 5394, 12376, 5547, 11654, 7719, 11728, 5074, 11671, 6358, 11431, 63140, 6115, 12898, 5916, 11505, 5355, 11431, 7075, 13007, 5927, 10640, 5092, 10782, 6699, 11771, 5096, 61958, 12331, 8412, 12142, 5023, 12000, 7877, 10744, 5292, 10944, 5546, 12619, 6562, 12976, 6149, 10776, 57227, 6810, 11316, 5099, 13242, 5142, 10836, 5991, 11193, 5180, 11770, 6006, 12841, 7962, 11744, 6864, 11354, 6922],
      "SequenceName": [
 "ep_b5#1",
 "ep_b5#1",
 "ep_b1490#2",
 "ep_b2990#3",
 "ep_b1495#4",
 "ep_b3005#5",
 "ep_b1500#6",
 "ep_b2985#7",
 "ep_b1495#8",
 "ep_b3005#9",
 "ep_b1490#10",
 "ep_b2995#11",
 "ep_b1490#12",
 "ep_b2990#13",
 "ep_b1500#14",
 "ep_b2985#15",
 "ep_b1500#16",
 "ep_b5#17",
 "ep_b3005#18",
 "ep_b1490#19",
 "ep_b2995#20",
 "ep_b1495#21",
 "ep_b3000#22",
 "ep_b1495#23",
 "ep_b3000#24",
 "ep_b1490#25",
 "ep_b2985#26",
 "ep_b1505#27",
 "ep_b2990#28",
 "ep_b1500#29",
 "ep_b3000#30",
 "ep_b1490#31",
 "ep_b3000#32",
 "ep_b5#33",
 "ep_b1505#34",
 "ep_b3000#35",
 "ep_b1495#36",
 "ep_b2985#37",
 "ep_b1495#38",
 "ep_b2995#39",
 "ep_b1500#40",
 "ep_b2995#41",
 "ep_b1500#42",
 "ep_b2990#43",
 "ep_b1495#44",
 "ep_b3000#45",
 "ep_b1495#46",
 "ep_b3000#47",
 "ep_b1490#48",
 "ep_b5#49",
 "ep_b3000#50",
 "ep_b1495#51",
 "ep_b2990#52",
 "ep_b1505#53",
 "ep_b2995#54",
 "ep_b1495#55",
 "ep_b2990#56",
 "ep_b1490#57",
 "ep_b2995#58",
 "ep_b1500#59",
 "ep_b3000#60",
 "ep_b1500#61",
 "ep_b2985#62",
 "ep_b1500#63",
 "ep_b2990#64",
 "ep_b5#65",
 "ep_b1505#66",
 "ep_b3005#67",
 "ep_b1495#68",
 "ep_b3000#69",
 "ep_b1505#70",
 "ep_b3005#71",
 "ep_b1500#72",
 "ep_b3005#73",
 "ep_b1495#74",
 "ep_b2995#75",
 "ep_b1495#76",
 "ep_b2995#77",
 "ep_b1500#78",
 "ep_b3000#79",
 "ep_b1490#80",
 "ep_b5#81",
 "ep_b2990#82",
 "ep_b1500#83",
 "ep_b2985#84",
 "ep_b1495#85",
 "ep_b2995#86",
 "ep_b1495#87",
 "ep_b2995#88",
 "ep_b1490#89",
 "ep_b2985#90",
 "ep_b1500#91",
 "ep_b3000#92",
 "ep_b1495#93",
 "ep_b3005#94",
 "ep_b1495#95",
 "ep_b2990#96",
 "ep_b1500#97",
 "ep_b3000#98"
],
      "TriggerTime": [13297.5, 15632.5, 17965.0, 20300.0, 22635.0, 24967.5, 27302.5, 29635.0, 31970.0, 34305.0, 36637.5, 38972.5, 41305.0, 43640.0, 45975.0, 48307.5, 50642.5, 52975.0, 55310.0, 57645.0, 59977.5, 62312.5, 64645.0, 66980.0, 69315.0, 71647.5, 73982.5, 76315.0, 78650.0, 80985.0, 83317.5, 85652.5, 87985.0, 90320.0, 92655.0, 94987.5, 97322.5, 99655.0, 101990.0, 104325.0, 106657.5, 108992.5, 111325.0, 113660.0, 115995.0, 118327.5, 120662.5, 122995.0, 125330.0, 127665.0, 129997.5, 132332.5, 134665.0, 137000.0, 139335.0, 141667.5, 144002.5, 146335.0, 148670.0, 151005.0, 153337.5, 155672.5, 158005.0, 160340.0, 162675.0, 165007.5, 167342.5, 169675.0, 172010.0, 174345.0, 176677.5, 179012.5, 181345.0, 183680.0, 186015.0, 188347.5, 190682.5, 193015.0, 195350.0, 197685.0, 200017.5, 202352.5, 204685.0, 207020.0, 209355.0, 211687.5, 214022.5, 216355.0, 218690.0, 221025.0, 223357.5, 225692.5, 228025.0, 230360.0, 232695.0, 235027.5, 237362.5, 239695.0, 242030.0],
      "WindowCenter": [6880.0, 6920.0, 2622.0, 1509.0, 2588.0, 1558.0, 2592.0, 1514.0, 2602.0, 1494.0, 2588.0, 1557.0, 2659.0, 1545.0, 2564.0, 1538.0, 2561.0, 6893.0, 1565.0, 2641.0, 1494.0, 2640.0, 1566.0, 2601.0, 1586.0, 2566.0, 1471.0, 2617.0, 1510.0, 2596.0, 1515.0, 2577.0, 1598.0, 6890.0, 2611.0, 1507.0, 2594.0, 1508.0, 2593.0, 1543.0, 2642.0, 1511.0, 2553.0, 1614.0, 2613.0, 1480.0, 2621.0, 1540.0, 2584.0, 6887.0, 1530.0, 2638.0, 1543.0, 2578.0, 1515.0, 2555.0, 1586.0, 2644.0, 1503.0, 2558.0, 1475.0, 2565.0, 1532.0, 2611.0, 1516.0, 6901.0, 2598.0, 1593.0, 2583.0, 1499.0, 2628.0, 1592.0, 2592.0, 1479.0, 2558.0, 1499.0, 2610.0, 1584.0, 2615.0, 1500.0, 2566.0, 6829.0, 1557.0, 2569.0, 1480.0, 2637.0, 1502.0, 2583.0, 1551.0, 2565.0, 1472.0, 2599.0, 1542.0, 2626.0, 1558.0, 2579.0, 1535.0, 2547.0, 1584.0],
      "WindowWidth": [14887.0, 14943.0, 6263.0, 3905.0, 6203.0, 4021.0, 6197.0, 3924.0, 6221.0, 3870.0, 6207.0, 4019.0, 6358.0, 4000.0, 6139.0, 3965.0, 6146.0, 14877.0, 4019.0, 6310.0, 3872.0, 6306.0, 4031.0, 6219.0, 4083.0, 6152.0, 3828.0, 6275.0, 3910.0, 6214.0, 3904.0, 6177.0, 4099.0, 14863.0, 6256.0, 3900.0, 6206.0, 3901.0, 6200.0, 3982.0, 6328.0, 3914.0, 6125.0, 4136.0, 6247.0, 3842.0, 6261.0, 3972.0, 6195.0, 14820.0, 3964.0, 6306.0, 3988.0, 6174.0, 3922.0, 6132.0, 4081.0, 6324.0, 3880.0, 6133.0, 3846.0, 6146.0, 3945.0, 6240.0, 3934.0, 14877.0, 6227.0, 4079.0, 6186.0, 3885.0, 6294.0, 4080.0, 6197.0, 3838.0, 6145.0, 3893.0, 6242.0, 4072.0, 6269.0, 3869.0, 6152.0, 14730.0, 4016.0, 6159.0, 3841.0, 6315.0, 3907.0, 6185.0, 3994.0, 6150.0, 3835.0, 6215.0, 3984.0, 6283.0, 3995.0, 6169.0, 3955.0, 6119.0, 4076.0]
    },
    "slices": {}
  }
}