{
  "AcquisitionMatrixPE": 110,
  "AcquisitionNumber": 1,
  "AcquisitionTime": "18:35:13.277500",
  "BandwidthPerPixelPhaseEncode": 12.987,
  "BaseResolution": 110,
  "BodyPartExamined": "BRAIN",
  "CoilCombinationMethod": "Sum of Squares",
  "ConsistencyInfo": "N4_VE11C_LATEST_20160120",
  "ConversionSoftware": "dcm2niix",
  "ConversionSoftwareVersion": "v1.0.20211006",
  "DerivedVendorReportedEchoSpacing": 0.000700001,
  "DeviceSerialNumber": "167006",
  "DiffusionScheme": "Monopolar",
  "DwellTime": 2.7e-06,
  "EchoTime": 0.0816,
  "EchoTrainLength": 83,
  "EffectiveEchoSpacing": 0.000700001,
  "FlipAngle": 78,
  "HeudiconvVersion": "0.5.3.post569+g418601f",
  "ImageComments": "Unaliased MB3/PE3/LB SENSE1",
  "ImageOrientationPatientDICOM": [1, 0, 0, 0, 0.949425, -0.313992],
  "ImageOrientationText": "Tra>Cor(-18.3)",
  "ImageType": [
    "ORIGINAL",
    "PRIMARY",
    "DIFFUSION",
    "NONE",
    "MB",
    "ND",
    "MOSAIC"
],
  "ImagingFrequency": 123.259,
  "InPlanePhaseEncodingDirectionDICOM": "COL",
  "InstitutionAddress": "Chemin Queen-Mary 4565,Montreal,District,CA,H3W 1W5",
  "InstitutionName": "IUGM",
  "InstitutionalDepartmentName": "Department",
  "MRAcquisitionType": "2D",
  "MagneticFieldStrength": 3,
  "Manufacturer": "Siemens",
  "ManufacturersModelName": "Prisma_fit",
  "MatrixCoilMode": "SENSE",
  "Modality": "MR",
  "MultibandAccelerationFactor": 3,
  "PartialFourier": 0.75,
  "PatientPosition": "HFS",
  "PercentPhaseFOV": 100,
  "PercentSampling": 100,
  "PhaseEncodingDirection": "j",
  "PhaseEncodingSteps": 83,
  "PhaseResolution": 1,
  "PixelBandwidth": 1685,
  "ProcedureStepDescription": "anat^generic",
  "ProtocolName": "dMRI_dir98_PA_test_cmrr",
  "PulseSequenceDetails": "%CustomerSeq%\\cmrr_mbep2d_diff",
  "ReceiveCoilActiveElements": "HC1-6",
  "ReceiveCoilName": "HeadNeck_64",
  "ReconMatrixPE": 110,
  "RepetitionTime": 2.334,
  "SAR": 0.128363,
  "ScanOptions": "PFP\\EXT",
  "ScanningSequence": "EP",
  "SequenceName": "ep_b5#1",
  "SequenceVariant": "SK\\SS",
  "SeriesDescription": "dMRI_dir98_PA_test_cmrr",
  "SeriesNumber": 11,
  "ShimSetting": [614, -7255, -8842, 437, 22, -309, 44, 15],
  "SliceThickness": 2,
  "SliceTiming": [0, 1.2175, 0.1225, 1.34, 0.245, 1.4625, 0.3675, 1.585, 0.4875, 1.705, 0.61, 1.8275, 0.7325, 1.95, 0.8525, 2.07, 0.975, 2.1925, 1.0975, 0, 1.2175, 0.1225, 1.34, 0.245, 1.4625, 0.3675, 1.585, 0.4875, 1.705, 0.61, 1.8275, 0.7325, 1.95, 0.8525, 2.07, 0.975, 2.1925, 1.0975, 0, 1.2175, 0.1225, 1.34, 0.245, 1.4625, 0.3675, 1.585, 0.4875, 1.705, 0.61, 1.8275, 0.7325, 1.95, 0.8525, 2.07, 0.975, 2.1925, 1.0975],
  "SoftwareVersions": "syngo MR E11",
  "SpacingBetweenSlices": 2,
  "StationName": "MRC35049",
  "TotalReadoutTime": 0.0763001,
  "TxRefAmp": 233.358,
  "WipMemBlock": "04ad9090-5e2c-4dcd-9d89-3473e99de43d||Sequence: R016 ve11c/master r/e634e98; Dec 19 2017 11:11:25 by eja",
  "dcmmeta_affine": [
    [-2.0, 0.0, 0.0, 109.49686431884766],
    [0.0, 1.898850917816162, -0.627984881401062, -76.7911376953125],
    [0.0, 0.6279849410057068, 1.898850917816162, -56.301971435546875],
    [0.0, 0.0, 0.0, 1.0]
],
  "dcmmeta_reorient_transform": [
    [0.0, -1.0, 0.0, 109.0],
    [1.0, 0.0, 0.0, 0.0],
    [0.0, 0.0, 1.0, 0.0],
    [0.0, 0.0, 0.0, 1.0]
],
  "dcmmeta_shape": [110, 110, 57, 99],
  "dcmmeta_slice_dim": 2,
  "dcmmeta_version": 0.6,
  "global": {
    "const": {
      "AcquisitionMatrix": [110, 0, 0, 110],
      "AngioFlag": "N",
      "BitsAllocated": 16,
      "BitsStored": 16,
      "BodyPartExamined": "BRAIN",
      "CardiacNumberOfImages": 1,
      "Columns": 880,
      "EchoNumbers": 1,
      "EchoTime": 81.6,
      "EchoTrainLength": 83,
      "FlipAngle": 78.0,
      "HighBit": 15,
      "ImageOrientationPatient": [1.0, 0.0, 0.0, 0.0, 0.94942547761458, -0.31399245605],
      "ImagePositionPatient": [-879.49686384201, -861.24123121392, 253.92257419938],
      "ImageType": [
        "ORIGINAL",
        "PRIMARY",
        "DIFFUSION",
        "NONE",
        "MB",
        "ND",
        "MOSAIC"
],
      "ImagedNucleus": "1H",
      "ImagingFrequency": 123.258911,
      "InPlanePhaseEncodingDirection": "COL",
      "MRAcquisitionType": "2D",
      "MagneticFieldStrength": 3.0,
      "Manufacturer": "SIEMENS",
      "ManufacturerModelName": "Prisma_fit",
      "Modality": "MR",
      "NominalInterval": 0,
      "NumberOfAverages": 1.0,
      "NumberOfPhaseEncodingSteps": 83,
      "PercentPhaseFieldOfView": 100.0,
      "PercentSampling": 100.0,
      "PerformedProcedureStepStartTime": "180719.600000",
      "PhotometricInterpretation": "MONOCHROME2",
      "PixelBandwidth": 1685.0,
      "PixelRepresentation": 0,
      "PixelSpacing": [2.0, 2.0],
      "ProtocolName": "dMRI_dir98_PA_test_cmrr",
      "RepetitionTime": 2334.0,
      "Rows": 880,
      "SAR": 0.12836306289994,
      "SamplesPerPixel": 1,
      "ScanOptions": [
        "PFP",
        "EXT"
],
      "ScanningSequence": "EP",
      "SequenceVariant": [
        "SK",
        "SS"
],
      "SeriesDescription": "dMRI_dir98_PA_test_cmrr",
      "SeriesNumber": 11,
      "SeriesTime": "183619.995000",
      "SliceLocation": -29.342688154027,
      "SliceThickness": 2.0,
      "SmallestImagePixelValue": 0,
      "SoftwareVersions": "syngo MR E11",
      "SpacingBetweenSlices": 1.9999999385444,
      "SpecificCharacterSet": "ISO_IR 100",
      "StudyID": "1",
      "StudyTime": "180719.528000",
      "TransmitCoilName": "Body",
      "VariableFlipAngleFlag": "N",
      "WindowCenterWidthExplanation": "Algo1",
      "dBdt": 0.0},
    "slices": {}
  },
  "time": {
    "samples": {
      "AcquisitionNumber": [1, 2, 3, 4, 5, 6, 7, 8, 9, 10, 11, 12, 13, 14, 15, 16, 17, 18, 19, 20, 21, 22, 23, 24, 25, 26, 27, 28, 29, 30, 31, 32, 33, 34, 35, 36, 37, 38, 39, 40, 41, 42, 43, 44, 45, 46, 47, 48, 49, 50, 51, 52, 53, 54, 55, 56, 57, 58, 59, 60, 61, 62, 63, 64, 65, 66, 67, 68, 69, 70, 71, 72, 73, 74, 75, 76, 77, 78, 79, 80, 81, 82, 83, 84, 85, 86, 87, 88, 89, 90, 91, 92, 93, 94, 95, 96, 97, 98, 99],
      "AcquisitionTime": ["183513.277500", "183515.612500", "183517.947500", "183520.280000", "183522.615000", "183524.947500", "183527.282500", "183529.617500", "183531.950000", "183534.285000", "183536.617500", "183538.952500", "183541.287500", "183543.620000", "183545.955000", "183548.287500", "183550.622500", "183552.957500", "183555.290000", "183557.625000", "183559.957500", "183602.292500", "183604.627500", "183606.960000", "183609.295000", "183611.627500", "183613.962500", "183616.297500", "183618.630000", "183620.965000", "183623.297500", "183625.632500", "183627.967500", "183630.300000", "183632.635000", "183634.967500", "183637.302500", "183639.637500", "183641.970000", "183644.305000", "183646.637500", "183648.972500", "183651.307500", "183653.640000", "183655.975000", "183658.307500", "183700.642500", "183702.977500", "183705.310000", "183707.645000", "183709.977500", "183712.312500", "183714.647500", "183716.980000", "183719.315000", "183721.647500", "183723.982500", "183726.317500", "183728.650000", "183730.985000", "183733.317500", "183735.652500", "183737.987500", "183740.320000", "183742.655000", "183744.987500", "183747.322500", "183749.657500", "183751.990000", "183754.325000", "183756.657500", "183758.992500", "183801.327500", "183803.660000", "183805.995000", "183808.327500", "183810.662500", "183812.997500", "183815.330000", "183817.665000", "183819.997500", "183822.332500", "183824.667500", "183827.000000", "183829.335000", "183831.667500", "183834.002500", "183836.337500", "183838.670000", "183841.005000", "183843.337500", "183845.672500", "183848.007500", "183850.340000", "183852.675000", "183855.007500", "183857.342500", "183859.677500", "183902.010000"],
      "ContentTime": ["183619.998000", "183620.002000", "183620.006000", "183620.009000", "183620.012000", "183620.015000", "183620.018000", "183620.021000", "183620.024000", "183620.027000", "183620.030000", "183620.033000", "183620.037000", "183620.040000", "183620.043000", "183620.046000", "183620.052000", "183620.055000", "183620.058000", "183620.061000", "183620.064000", "183620.067000", "183620.071000", "183620.074000", "183620.077000", "183620.080000", "183620.083000", "183620.087000", "183719.969000", "183719.972000", "183719.976000", "183719.979000", "183719.982000", "183719.985000", "183719.988000", "183719.991000", "183719.994000", "183719.997000", "183720.001000", "183720.005000", "183720.008000", "183720.011000", "183720.014000", "183720.017000", "183720.020000", "183720.023000", "183720.026000", "183720.029000", "183720.032000", "183720.036000", "183720.039000", "183720.042000", "183720.045000", "183720.067000", "183819.969000", "183819.972000", "183819.976000", "183819.979000", "183819.982000", "183819.985000", "183819.990000", "183819.994000", "183819.997000", "183820.001000", "183820.004000", "183820.007000", "183820.010000", "183820.013000", "183820.016000", "183820.019000", "183820.022000", "183820.025000", "183820.029000", "183820.032000", "183820.035000", "183820.038000", "183820.041000", "183820.044000", "183820.047000", "183906.338000", "183906.342000", "183906.345000", "183906.348000", "183906.352000", "183906.355000", "183906.358000", "183906.361000", "183906.364000", "183906.367000", "183906.370000", "183906.373000", "183906.376000", "183906.380000", "183906.383000", "183906.386000", "183906.389000", "183906.392000", "183906.395000", "183906.398000"],
      "InstanceCreationTime": ["183619.998000", "183620.002000", "183620.006000", "183620.009000", "183620.012000", "183620.015000", "183620.018000", "183620.021000", "183620.024000", "183620.027000", "183620.030000", "183620.033000", "183620.037000", "183620.040000", "183620.043000", "183620.046000", "183620.052000", "183620.055000", "183620.058000", "183620.061000", "183620.064000", "183620.067000", "183620.071000", "183620.074000", "183620.077000", "183620.080000", "183620.083000", "183620.087000", "183719.969000", "183719.972000", "183719.976000", "183719.979000", "183719.982000", "183719.985000", "183719.988000", "183719.991000", "183719.994000", "183719.997000", "183720.001000", "183720.005000", "183720.008000", "183720.011000", "183720.014000", "183720.017000", "183720.020000", "183720.023000", "183720.026000", "183720.029000", "183720.032000", "183720.036000", "183720.039000", "183720.042000", "183720.045000", "183720.067000", "183819.969000", "183819.972000", "183819.976000", "183819.979000", "183819.982000", "183819.985000", "183819.990000", "183819.994000", "183819.997000", "183820.001000", "183820.004000", "183820.007000", "183820.010000", "183820.013000", "183820.016000", "183820.019000", "183820.022000", "183820.025000", "183820.029000", "183820.032000", "183820.035000", "183820.038000", "183820.041000", "183820.044000", "183820.047000", "183906.338000", "183906.342000", "183906.345000", "183906.348000", "183906.352000", "183906.355000", "183906.358000", "183906.361000", "183906.364000", "183906.367000", "183906.370000", "183906.373000", "183906.376000", "183906.380000", "183906.383000", "183906.386000", "183906.389000", "183906.392000", "183906.395000", "183906.398000"],
      "InstanceNumber": [1, 2, 3, 4, 5, 6, 7, 8, 9, 10, 11, 12, 13, 14, 15, 16, 17, 18, 19, 20, 21, 22, 23, 24, 25, 26, 27, 28, 29, 30, 31, 32, 33, 34, 35, 36, 37, 38, 39, 40, 41, 42, 43, 44, 45, 46, 47, 48, 49, 50, 51, 52, 53, 54, 55, 56, 57, 58, 59, 60, 61, 62, 63, 64, 65, 66, 67, 68, 69, 70, 71, 72, 73, 74, 75, 76, 77, 78, 79, 80, 81, 82, 83, 84, 85, 86, 87, 88, 89, 90, 91, 92, 93, 94, 95, 96, 97, 98, 99],
      "LargestImagePixelValue": [40579, 40489, 12465, 5252, 12883, 6859, 12119, 6204, 11634, 5314, 14061, 5229, 13021, 5680, 11003, 6047, 12425, 41752, 7000, 12457, 4415, 12551, 5441, 11509, 5354, 12222, 5912, 13905, 5309, 12117, 5565, 13127, 6014, 42080, 13742, 5135, 12322, 6639, 11391, 5333, 14002, 5139, 12441, 6210, 12172, 5147, 11852, 7283, 13735, 40186, 6949, 11967, 5194, 12947, 4849, 11978, 5814, 13234, 4825, 11773, 6342, 11815, 6338, 11519, 5606, 38191, 14492, 6622, 11918, 4790, 14327, 6718, 11509, 5988, 13388, 5043, 12198, 5596, 11769, 5301, 11739, 39928, 6669, 12399, 5147, 14386, 5220, 10755, 4917, 12303, 6831, 11806, 5136, 12512, 6875, 11951, 5439, 12605, 6618],
      "SequenceName": [
 "ep_b5#1",
 "ep_b5#1",
 "ep_b1490#2",
 "ep_b2990#3",
 "ep_b1495#4",
 "ep_b3005#5",
 "ep_b1500#6",
 "ep_b2985#7",
 "ep_b1495#8",
 "ep_b3005#9",
 "ep_b1490#10",
 "ep_b2995#11",
 "ep_b1490#12",
 "ep_b2990#13",
 "ep_b1500#14",
 "ep_b2985#15",
 "ep_b1500#16",
 "ep_b5#17",
 "ep_b3005#18",
 "ep_b1490#19",
 "ep_b2995#20",
 "ep_b1500#21",
 "ep_b3000#22",
 "ep_b1495#23",
 "ep_b3000#24",
 "ep_b1490#25",
 "ep_b2985#26",
 "ep_b1505#27",
 "ep_b2990#28",
 "ep_b1500#29",
 "ep_b3000#30",
 "ep_b1490#31",
 "ep_b3000#32",
 "ep_b5#33",
 "ep_b1505#34",
 "ep_b3000#35",
 "ep_b1495#36",
 "ep_b2985#37",
 "ep_b1495#38",
 "ep_b2995#39",
 "ep_b1500#40",
 "ep_b2995#41",
 "ep_b1500#42",
 "ep_b2990#43",
 "ep_b1495#44",
 "ep_b3000#45",
 "ep_b1495#46",
 "ep_b3000#47",
 "ep_b1490#48",
 "ep_b5#49",
 "ep_b3000#50",
 "ep_b1500#51",
 "ep_b2990#52",
 "ep_b1505#53",
 "ep_b2995#54",
 "ep_b1495#55",
 "ep_b2990#56",
 "ep_b1490#57",
 "ep_b2995#58",
 "ep_b1500#59",
 "ep_b3000#60",
 "ep_b1500#61",
 "ep_b2985#62",
 "ep_b1500#63",
 "ep_b2990#64",
 "ep_b5#65",
 "ep_b1505#66",
 "ep_b3005#67",
 "ep_b1495#68",
 "ep_b3000#69",
 "ep_b1505#70",
 "ep_b3005#71",
 "ep_b1500#72",
 "ep_b3005#73",
 "ep_b1495#74",
 "ep_b2995#75",
 "ep_b1495#76",
 "ep_b2995#77",
 "ep_b1500#78",
 "ep_b3000#79",
 "ep_b1490#80",
 "ep_b5#81",
 "ep_b2990#82",
 "ep_b1500#83",
 "ep_b2985#84",
 "ep_b1495#85",
 "ep_b2995#86",
 "ep_b1495#87",
 "ep_b2995#88",
 "ep_b1490#89",
 "ep_b2985#90",
 "ep_b1500#91",
 "ep_b3000#92",
 "ep_b1495#93",
 "ep_b3005#94",
 "ep_b1495#95",
 "ep_b2990#96",
 "ep_b1500#97",
 "ep_b3000#98"
],
      "TriggerTime": [13297.5, 15632.5, 17965.0, 20300.0, 22635.0, 24967.5, 27302.5, 29635.0, 31970.0, 34305.0, 36637.5, 38972.5, 41305.0, 43640.0, 45975.0, 48307.5, 50642.5, 52975.0, 55310.0, 57645.0, 59977.5, 62312.5, 64645.0, 66980.0, 69315.0, 71647.5, 73982.5, 76315.0, 78650.0, 80985.0, 83317.5, 85652.5, 87985.0, 90320.0, 92655.0, 94987.5, 97322.5, 99655.0, 101990.0, 104325.0, 106657.5, 108992.5, 111325.0, 113660.0, 115995.0, 118327.5, 120662.5, 122995.0, 125330.0, 127665.0, 129997.5, 132332.5, 134665.0, 137000.0, 139335.0, 141667.5, 144002.5, 146335.0, 148670.0, 151005.0, 153337.5, 155672.5, 158005.0, 160340.0, 162675.0, 165007.5, 167342.5, 169675.0, 172010.0, 174345.0, 176677.5, 179012.5, 181345.0, 183680.0, 186015.0, 188347.5, 190682.5, 193015.0, 195350.0, 197685.0, 200017.5, 202352.5, 204685.0, 207020.0, 209355.0, 211687.5, 214022.5, 216355.0, 218690.0, 221025.0, 223357.5, 225692.5, 228025.0, 230360.0, 232695.0, 235027.5, 237362.5, 239695.0, 242030.0],
      "WindowCenter": [6894.0, 6918.0, 2570.0, 1477.0, 2539.0, 1531.0, 2549.0, 1502.0, 2533.0, 1461.0, 2569.0, 1497.0, 2598.0, 1527.0, 2510.0, 1509.0, 2510.0, 6833.0, 1544.0, 2586.0, 1440.0, 2599.0, 1486.0, 2544.0, 1526.0, 2538.0, 1473.0, 2565.0, 1485.0, 2555.0, 1450.0, 2536.0, 1520.0, 6829.0, 2569.0, 1448.0, 2566.0, 1527.0, 2561.0, 1516.0, 2623.0, 1466.0, 2516.0, 1539.0, 2567.0, 1456.0, 2562.0, 1541.0, 2550.0, 6819.0, 1534.0, 2596.0, 1482.0, 2539.0, 1462.0, 2529.0, 1521.0, 2597.0, 1433.0, 2531.0, 1486.0, 2524.0, 1517.0, 2564.0, 1495.0, 6827.0, 2566.0, 1549.0, 2547.0, 1462.0, 2591.0, 1546.0, 2536.0, 1469.0, 2553.0, 1471.0, 2552.0, 1539.0, 2566.0, 1448.0, 2550.0, 6767.0, 1543.0, 2528.0, 1461.0, 2595.0, 1484.0, 2529.0, 1482.0, 2526.0, 1515.0, 2525.0, 1509.0, 2577.0, 1514.0, 2526.0, 1485.0, 2512.0, 1546.0],
      "WindowWidth": [15044.0, 15097.0, 6164.0, 3840.0, 6094.0, 3954.0, 6104.0, 3900.0, 6096.0, 3804.0, 6161.0, 3899.0, 6214.0, 3963.0, 6041.0, 3915.0, 6039.0, 14887.0, 3973.0, 6196.0, 3768.0, 6211.0, 3881.0, 6115.0, 3960.0, 6099.0, 3829.0, 6152.0, 3875.0, 6131.0, 3785.0, 6092.0, 3938.0, 14871.0, 6160.0, 3784.0, 6152.0, 3938.0, 6135.0, 3918.0, 6269.0, 3828.0, 6042.0, 3979.0, 6154.0, 3786.0, 6148.0, 3971.0, 6123.0, 14854.0, 3962.0, 6215.0, 3861.0, 6098.0, 3833.0, 6082.0, 3936.0, 6213.0, 3747.0, 6086.0, 3854.0, 6066.0, 3920.0, 6133.0, 3887.0, 14899.0, 6154.0, 3993.0, 6121.0, 3803.0, 6203.0, 3988.0, 6086.0, 3814.0, 6126.0, 3845.0, 6125.0, 3983.0, 6157.0, 3779.0, 6114.0, 14743.0, 3975.0, 6079.0, 3805.0, 6200.0, 3877.0, 6088.0, 3864.0, 6079.0, 3914.0, 6076.0, 3916.0, 6165.0, 3912.0, 6068.0, 3877.0, 6042.0, 3986.0]
    },
    "slices": {}
  }
}