{
  "AcquisitionMatrixPE": 110,
  "AcquisitionNumber": 1,
  "AcquisitionTime": "10:59:53.000000",
  "BandwidthPerPixelPhaseEncode": 12.987,
  "BaseResolution": 110,
  "BodyPartExamined": "BRAIN",
  "CoilCombinationMethod": "Sum of Squares",
  "ConsistencyInfo": "N4_VE11C_LATEST_20160120",
  "ConversionSoftware": "dcm2niix",
  "ConversionSoftwareVersion": "v1.0.20211006",
  "DerivedVendorReportedEchoSpacing": 0.000700001,
  "DeviceSerialNumber": "167006",
  "DiffusionScheme": "Monopolar",
  "DwellTime": 2.7e-06,
  "EchoTime": 0.0768,
  "EchoTrainLength": 83,
  "EffectiveEchoSpacing": 0.000700001,
  "FlipAngle": 78,
  "HeudiconvVersion": "0.5.3.post569+g418601f",
  "ImageComments": "Unaliased MB3/PE3/LB SENSE1",
  "ImageOrientationPatientDICOM": [1, 0, 0, 0, 0.838671, -0.544639],
  "ImageOrientationText": "Tra>Cor(-33.0)",
  "ImageType": [
    "ORIGINAL",
    "PRIMARY",
    "DIFFUSION",
    "NONE",
    "MB",
    "ND",
    "MOSAIC"
],
  "ImagingFrequency": 123.259,
  "InPlanePhaseEncodingDirectionDICOM": "COL",
  "InstitutionAddress": "Chemin Queen-Mary 4565,Montreal,District,CA,H3W 1W5",
  "InstitutionName": "IUGM",
  "InstitutionalDepartmentName": "Department",
  "MRAcquisitionType": "2D",
  "MagneticFieldStrength": 3,
  "Manufacturer": "Siemens",
  "ManufacturersModelName": "Prisma_fit",
  "MatrixCoilMode": "SENSE",
  "Modality": "MR",
  "MultibandAccelerationFactor": 3,
  "PartialFourier": 0.75,
  "PatientPosition": "HFS",
  "PercentPhaseFOV": 100,
  "PercentSampling": 100,
  "PhaseEncodingDirection": "j",
  "PhaseEncodingSteps": 83,
  "PhaseResolution": 1,
  "PixelBandwidth": 1685,
  "ProcedureStepDescription": "anat^generic",
  "ProtocolName": "dMRI_dir106_PA_test_cmrr",
  "PulseSequenceDetails": "%CustomerSeq%\\cmrr_mbep2d_diff",
  "ReceiveCoilActiveElements": "HC1-7",
  "ReceiveCoilName": "HeadNeck_64",
  "ReconMatrixPE": 110,
  "RepetitionTime": 2.243,
  "SAR": 0.166067,
  "ScanOptions": "PFP\\EXT",
  "ScanningSequence": "EP",
  "SequenceName": "ep_b5#1",
  "SequenceVariant": "SK\\SS",
  "SeriesDescription": "dMRI_dir106_PA_test_cmrr",
  "SeriesNumber": 11,
  "ShimSetting": [631, -7197, -8851, 346, -24, -172, 82, 14],
  "SliceThickness": 2,
  "SliceTiming": [0, 1.17, 0.1175, 1.2875, 0.235, 1.405, 0.3525, 1.5225, 0.4675, 1.6375, 0.585, 1.755, 0.7025, 1.8725, 0.82, 1.99, 0.9375, 2.105, 1.0525, 0, 1.17, 0.1175, 1.2875, 0.235, 1.405, 0.3525, 1.5225, 0.4675, 1.6375, 0.585, 1.755, 0.7025, 1.8725, 0.82, 1.99, 0.9375, 2.105, 1.0525, 0, 1.17, 0.1175, 1.2875, 0.235, 1.405, 0.3525, 1.5225, 0.4675, 1.6375, 0.585, 1.755, 0.7025, 1.8725, 0.82, 1.99, 0.9375, 2.105, 1.0525],
  "SoftwareVersions": "syngo MR E11",
  "SpacingBetweenSlices": 2,
  "StationName": "MRC35049",
  "TotalReadoutTime": 0.0763001,
  "TxRefAmp": 253.673,
  "WipMemBlock": "de5a4722-4c7d-4c91-90ee-2ca423abc4e9||Sequence: R016 ve11c/master r/e634e98; Dec 19 2017 11:11:25 by eja",
  "dcmmeta_affine": [
    [-2.0, 0.0, 0.0, 112.69306945800781],
    [0.0, 1.677341103553772, -1.0892781019210815, -62.965904235839844],
    [0.0, 1.0892781019210815, 1.677341103553772, -94.76731872558594],
    [0.0, 0.0, 0.0, 1.0]
],
  "dcmmeta_reorient_transform": [
    [0.0, -1.0, 0.0, 109.0],
    [1.0, 0.0, 0.0, 0.0],
    [0.0, 0.0, 1.0, 0.0],
    [0.0, 0.0, 0.0, 1.0]
],
  "dcmmeta_shape": [110, 110, 57, 107],
  "dcmmeta_slice_dim": 2,
  "dcmmeta_version": 0.6,
  "global": {
    "const": {
      "AcquisitionMatrix": [110, 0, 0, 110],
      "AngioFlag": "N",
      "BitsAllocated": 16,
      "BitsStored": 16,
      "BodyPartExamined": "BRAIN",
      "CardiacNumberOfImages": 1,
      "Columns": 880,
      "EchoNumbers": 1,
      "EchoTime": 76.8,
      "EchoTrainLength": 83,
      "FlipAngle": 78.0,
      "HighBit": 15,
      "ImageOrientationPatient": [1.0, 0.0, 0.0, 0.0, 0.83867056370374, -0.5446390415466],
      "ImagePositionPatient": [-882.69306826591, -765.64061356112, 443.33605605446],
      "ImageType": [
        "ORIGINAL",
        "PRIMARY",
        "DIFFUSION",
        "NONE",
        "MB",
        "ND",
        "MOSAIC"
],
      "ImagedNucleus": "1H",
      "ImagingFrequency": 123.258835,
      "InPlanePhaseEncodingDirection": "COL",
      "MRAcquisitionType": "2D",
      "MagneticFieldStrength": 3.0,
      "Manufacturer": "SIEMENS",
      "ManufacturerModelName": "Prisma_fit",
      "Modality": "MR",
      "NominalInterval": 0,
      "NumberOfAverages": 1.0,
      "NumberOfPhaseEncodingSteps": 83,
      "PercentPhaseFieldOfView": 100.0,
      "PercentSampling": 100.0,
      "PerformedProcedureStepStartTime": "095518.965000",
      "PhotometricInterpretation": "MONOCHROME2",
      "PixelBandwidth": 1685.0,
      "PixelRepresentation": 0,
      "PixelSpacing": [2.0, 2.0],
      "ProtocolName": "dMRI_dir106_PA_test_cmrr",
      "RepetitionTime": 2243.0,
      "Rows": 880,
      "SAR": 0.16606703023064,
      "SamplesPerPixel": 1,
      "ScanOptions": [
        "PFP",
        "EXT"
],
      "ScanningSequence": "EP",
      "SequenceVariant": [
        "SK",
        "SS"
],
      "SeriesDescription": "dMRI_dir106_PA_test_cmrr",
      "SeriesNumber": 11,
      "SeriesTime": "110042.968000",
      "SliceLocation": -45.184869897732,
      "SliceThickness": 2.0,
      "SmallestImagePixelValue": 0,
      "SoftwareVersions": "syngo MR E11",
      "SpacingBetweenSlices": 1.999999976706,
      "SpecificCharacterSet": "ISO_IR 100",
      "StudyID": "1",
      "StudyTime": "095518.789000",
      "TransmitCoilName": "Body",
      "VariableFlipAngleFlag": "N",
      "WindowCenterWidthExplanation": "Algo1",
      "dBdt": 0.0},
    "slices": {}
  },
  "time": {
    "samples": {
      "AcquisitionNumber": [1, 2, 3, 4, 5, 6, 7, 8, 9, 10, 11, 12, 13, 14, 15, 16, 17, 18, 19, 20, 21, 22, 23, 24, 25, 26, 27, 28, 29, 30, 31, 32, 33, 34, 35, 36, 37, 38, 39, 40, 41, 42, 43, 44, 45, 46, 47, 48, 49, 50, 51, 52, 53, 54, 55, 56, 57, 58, 59, 60, 61, 62, 63, 64, 65, 66, 67, 68, 69, 70, 71, 72, 73, 74, 75, 76, 77, 78, 79, 80, 81, 82, 83, 84, 85, 86, 87, 88, 89, 90, 91, 92, 93, 94, 95, 96, 97, 98, 99, 100, 101, 102, 103, 104, 105, 106, 107],
      "AcquisitionTime": ["105953.000000", "105955.242500", "105957.487500", "105959.730000", "110001.972500", "110004.215000", "110006.457500", "110008.702500", "110010.945000", "110013.187500", "110015.430000", "110017.672500", "110019.917500", "110022.160000", "110024.402500", "110026.645000", "110028.887500", "110031.132500", "110033.375000", "110035.617500", "110037.860000", "110040.102500", "110042.347500", "110044.590000", "110046.832500", "110049.075000", "110051.317500", "110053.562500", "110055.805000", "110058.047500", "110100.290000", "110102.532500", "110104.777500", "110107.020000", "110109.262500", "110111.505000", "110113.747500", "110115.992500", "110118.235000", "110120.477500", "110122.720000", "110124.962500", "110127.207500", "110129.450000", "110131.692500", "110133.935000", "110136.177500", "110138.422500", "110140.665000", "110142.907500", "110145.150000", "110147.392500", "110149.637500", "110151.880000", "110154.122500", "110156.365000", "110158.607500", "110200.852500", "110203.095000", "110205.337500", "110207.580000", "110209.822500", "110212.067500", "110214.310000", "110216.552500", "110218.795000", "110221.037500", "110223.282500", "110225.525000", "110227.767500", "110230.010000", "110232.252500", "110234.497500", "110236.740000", "110238.982500", "110241.225000", "110243.467500", "110245.712500", "110247.955000", "110250.197500", "110252.440000", "110254.682500", "110256.927500", "110259.170000", "110301.412500", "110303.655000", "110305.897500", "110308.142500", "110310.385000", "110312.627500", "110314.870000", "110317.112500", "110319.357500", "110321.600000", "110323.842500", "110326.085000", "110328.327500", "110330.572500", "110332.815000", "110335.057500", "110337.300000", "110339.542500", "110341.787500", "110344.030000", "110346.272500", "110348.515000", "110350.757500"],
      "ContentTime": ["110042.971000", "110042.975000", "110042.978000", "110042.986000", "110042.989000", "110042.992000", "110042.995000", "110042.998000", "110043.002000", "110043.008000", "110043.011000", "110043.014000", "110043.017000", "110043.020000", "110043.023000", "110043.026000", "110043.030000", "110043.033000", "110043.036000", "110043.039000", "110043.042000", "110043.045000", "110142.939000", "110142.943000", "110142.946000", "110142.949000", "110142.952000", "110142.955000", "110142.958000", "110142.961000", "110142.964000", "110142.975000", "110142.978000", "110142.982000", "110142.985000", "110143.000000", "110143.003000", "110143.007000", "110143.010000", "110143.028000", "110143.032000", "110143.035000", "110143.038000", "110143.050000", "110143.054000", "110143.057000", "110143.060000", "110143.063000", "110242.939000", "110242.942000", "110242.945000", "110242.948000", "110242.952000", "110242.955000", "110242.958000", "110242.961000", "110242.976000", "110242.979000", "110242.982000", "110242.985000", "110242.988000", "110242.991000", "110242.994000", "110242.997000", "110243.002000", "110243.005000", "110243.008000", "110243.011000", "110243.014000", "110243.017000", "110243.020000", "110243.023000", "110243.026000", "110243.036000", "110243.039000", "110342.939000", "110342.942000", "110342.946000", "110342.949000", "110342.952000", "110342.955000", "110342.958000", "110342.961000", "110342.964000", "110342.967000", "110342.971000", "110342.974000", "110342.977000", "110342.980000", "110342.983000", "110342.986000", "110342.989000", "110342.992000", "110342.995000", "110343.000000", "110343.003000", "110343.006000", "110343.009000", "110343.012000", "110343.015000", "110343.018000", "110343.021000", "110355.213000", "110355.217000", "110355.220000", "110355.223000", "110355.226000"],
      "InstanceCreationTime": ["110042.971000", "110042.975000", "110042.978000", "110042.986000", "110042.989000", "110042.992000", "110042.995000", "110042.998000", "110043.002000", "110043.008000", "110043.011000", "110043.014000", "110043.017000", "110043.020000", "110043.023000", "110043.026000", "110043.030000", "110043.033000", "110043.036000", "110043.039000", "110043.042000", "110043.045000", "110142.939000", "110142.943000", "110142.946000", "110142.949000", "110142.952000", "110142.955000", "110142.958000", "110142.961000", "110142.964000", "110142.975000", "110142.978000", "110142.982000", "110142.985000", "110143.000000", "110143.003000", "110143.007000", "110143.010000", "110143.028000", "110143.032000", "110143.035000", "110143.038000", "110143.050000", "110143.054000", "110143.057000", "110143.060000", "110143.063000", "110242.939000", "110242.942000", "110242.945000", "110242.948000", "110242.952000", "110242.955000", "110242.958000", "110242.961000", "110242.976000", "110242.979000", "110242.982000", "110242.985000", "110242.988000", "110242.991000", "110242.994000", "110242.997000", "110243.002000", "110243.005000", "110243.008000", "110243.011000", "110243.014000", "110243.017000", "110243.020000", "110243.023000", "110243.026000", "110243.036000", "110243.039000", "110342.939000", "110342.942000", "110342.946000", "110342.949000", "110342.952000", "110342.955000", "110342.958000", "110342.961000", "110342.964000", "110342.967000", "110342.971000", "110342.974000", "110342.977000", "110342.980000", "110342.983000", "110342.986000", "110342.989000", "110342.992000", "110342.995000", "110343.000000", "110343.003000", "110343.006000", "110343.009000", "110343.012000", "110343.015000", "110343.018000", "110343.021000", "110355.213000", "110355.217000", "110355.220000", "110355.223000", "110355.226000"],
      "InstanceNumber": [1, 2, 3, 4, 5, 6, 7, 8, 9, 10, 11, 12, 13, 14, 15, 16, 17, 18, 19, 20, 21, 22, 23, 24, 25, 26, 27, 28, 29, 30, 31, 32, 33, 34, 35, 36, 37, 38, 39, 40, 41, 42, 43, 44, 45, 46, 47, 48, 49, 50, 51, 52, 53, 54, 55, 56, 57, 58, 59, 60, 61, 62, 63, 64, 65, 66, 67, 68, 69, 70, 71, 72, 73, 74, 75, 76, 77, 78, 79, 80, 81, 82, 83, 84, 85, 86, 87, 88, 89, 90, 91, 92, 93, 94, 95, 96, 97, 98, 99, 100, 101, 102, 103, 104, 105, 106, 107],
      "LargestImagePixelValue": [65535, 65535, 21487, 12127, 23503, 21297, 36798, 12362, 10929, 11695, 21571, 37537, 10951, 11752, 12114, 10890, 22355, 11762, 11472, 12110, 12150, 50118, 20932, 11317, 21441, 23322, 11791, 11272, 11858, 13040, 37738, 11635, 21143, 11143, 11136, 36263, 11853, 13094, 20416, 11995, 10186, 65535, 11090, 10427, 12589, 36361, 21150, 11874, 10885, 20831, 12245, 21383, 21070, 11116, 36433, 21078, 11368, 22005, 11587, 10071, 20014, 50304, 19490, 10687, 10922, 11145, 12148, 36556, 20146, 22390, 10386, 11042, 11449, 11442, 20846, 10245, 10939, 12471, 20141, 21622, 13802, 50557, 21709, 11058, 10864, 21689, 21585, 11389, 20745, 11024, 10908, 11018, 20790, 11744, 10495, 11164, 34691, 22093, 12995, 22245, 22297, 50131, 11258, 11816, 21755, 12697, 10662],
      "SequenceName": [
 "ep_b5#1",
 "ep_b5#1",
 "ep_b1000#2",
 "ep_b2005#3",
 "ep_b1000#4",
 "ep_b995#5",
 "ep_b300#6",
 "ep_b1995#7",
 "ep_b2000#8",
 "ep_b2000#9",
 "ep_b995#10",
 "ep_b300#11",
 "ep_b1990#12",
 "ep_b2010#13",
 "ep_b2000#14",
 "ep_b2000#15",
 "ep_b1000#16",
 "ep_b2000#17",
 "ep_b2000#18",
 "ep_b2000#19",
 "ep_b1990#20",
 "ep_b5#21",
 "ep_b995#22",
 "ep_b1995#23",
 "ep_b1000#24",
 "ep_b1000#25",
 "ep_b2000#26",
 "ep_b1995#27",
 "ep_b1990#28",
 "ep_b1995#29",
 "ep_b300#30",
 "ep_b2005#31",
 "ep_b1005#32",
 "ep_b2000#33",
 "ep_b1995#34",
 "ep_b300#35",
 "ep_b2005#36",
 "ep_b1995#37",
 "ep_b1005#38",
 "ep_b2000#39",
 "ep_b2005#40",
 "ep_b5#41",
 "ep_b1995#42",
 "ep_b2005#43",
 "ep_b1995#44",
 "ep_b305#45",
 "ep_b1005#46",
 "ep_b2010#47",
 "ep_b1995#48",
 "ep_b1005#49",
 "ep_b2000#50",
 "ep_b995#51",
 "ep_b1000#52",
 "ep_b1995#53",
 "ep_b300#54",
 "ep_b995#55",
 "ep_b2000#56",
 "ep_b1000#57",
 "ep_b2010#58",
 "ep_b2000#59",
 "ep_b1005#60",
 "ep_b5#61",
 "ep_b1000#62",
 "ep_b1995#63",
 "ep_b2000#64",
 "ep_b2005#65",
 "ep_b2010#66",
 "ep_b300#67",
 "ep_b1005#68",
 "ep_b1000#69",
 "ep_b2005#70",
 "ep_b1995#71",
 "ep_b2005#72",
 "ep_b2000#73",
 "ep_b1005#74",
 "ep_b2000#75",
 "ep_b2005#76",
 "ep_b1995#77",
 "ep_b1005#78",
 "ep_b1000#79",
 "ep_b1995#80",
 "ep_b5#81",
 "ep_b995#82",
 "ep_b2005#83",
 "ep_b2005#84",
 "ep_b995#85",
 "ep_b1000#86",
 "ep_b1995#87",
 "ep_b1005#88",
 "ep_b2005#89",
 "ep_b2005#90",
 "ep_b1995#91",
 "ep_b1005#92",
 "ep_b2005#93",
 "ep_b2000#94",
 "ep_b1995#95",
 "ep_b300#96",
 "ep_b1000#97",
 "ep_b2000#98",
 "ep_b1000#99",
 "ep_b995#100",
 "ep_b5#101",
 "ep_b2005#102",
 "ep_b2005#103",
 "ep_b1000#104",
 "ep_b2005#105",
 "ep_b1995#106"
],
      "TriggerTime": [12837.5, 15080.0, 17322.5, 19567.5, 21810.0, 24052.5, 26295.0, 28537.5, 30782.5, 33025.0, 35267.5, 37510.0, 39752.5, 41997.5, 44240.0, 46482.5, 48725.0, 50967.5, 53212.5, 55455.0, 57697.5, 59940.0, 62182.5, 64427.5, 66670.0, 68912.5, 71155.0, 73397.5, 75642.5, 77885.0, 80127.5, 82370.0, 84612.5, 86857.5, 89100.0, 91342.5, 93585.0, 95827.5, 98072.5, 100315.0, 102557.5, 104800.0, 107042.5, 109287.5, 111530.0, 113772.5, 116015.0, 118257.5, 120502.5, 122745.0, 124987.5, 127230.0, 129472.5, 131717.5, 133960.0, 136202.5, 138445.0, 140687.5, 142932.5, 145175.0, 147417.5, 149660.0, 151902.5, 154147.5, 156390.0, 158632.5, 160875.0, 163117.5, 165362.5, 167605.0, 169847.5, 172090.0, 174332.5, 176577.5, 178820.0, 181062.5, 183305.0, 185547.5, 187792.5, 190035.0, 192277.5, 194520.0, 196762.5, 199007.5, 201250.0, 203492.5, 205735.0, 207977.5, 210222.5, 212465.0, 214707.5, 216950.0, 219192.5, 221437.5, 223680.0, 225922.5, 228165.0, 230407.5, 232652.5, 234895.0, 237137.5, 239380.0, 241622.5, 243867.5, 246110.0, 248352.5, 250595.0],
      "WindowCenter": [8101.0, 8090.0, 3766.0, 2472.0, 3833.0, 3720.0, 5844.0, 2458.0, 2395.0, 2412.0, 3767.0, 5850.0, 2388.0, 2365.0, 2446.0, 2448.0, 3795.0, 2427.0, 2428.0, 2443.0, 2409.0, 7819.0, 3784.0, 2419.0, 3768.0, 3797.0, 2439.0, 2370.0, 2402.0, 2408.0, 5824.0, 2381.0, 3745.0, 2459.0, 2389.0, 5869.0, 2425.0, 2454.0, 3692.0, 2441.0, 2333.0, 8013.0, 2428.0, 2348.0, 2452.0, 5819.0, 3757.0, 2366.0, 2386.0, 3709.0, 2469.0, 3758.0, 3732.0, 2424.0, 5838.0, 3738.0, 2447.0, 3761.0, 2389.0, 2388.0, 3709.0, 7855.0, 3765.0, 2383.0, 2417.0, 2415.0, 2415.0, 5887.0, 3696.0, 3789.0, 2357.0, 2453.0, 2431.0, 2426.0, 3705.0, 2396.0, 2413.0, 2453.0, 3690.0, 3794.0, 2493.0, 7840.0, 3741.0, 2401.0, 2398.0, 3796.0, 3754.0, 2394.0, 3729.0, 2419.0, 2422.0, 2365.0, 3728.0, 2441.0, 2399.0, 2438.0, 5848.0, 3804.0, 2482.0, 3788.0, 3791.0, 7805.0, 2351.0, 2410.0, 3747.0, 2410.0, 2416.0],
      "WindowWidth": [17505.0, 17497.0, 8576.0, 5991.0, 8720.0, 8507.0, 12697.0, 5968.0, 5828.0, 5844.0, 8602.0, 12722.0, 5822.0, 5768.0, 5925.0, 5948.0, 8648.0, 5891.0, 5880.0, 5931.0, 5858.0, 16922.0, 8637.0, 5897.0, 8585.0, 8640.0, 5912.0, 5762.0, 5857.0, 5857.0, 12662.0, 5802.0, 8583.0, 5967.0, 5807.0, 12760.0, 5897.0, 5949.0, 8449.0, 5903.0, 5694.0, 17369.0, 5905.0, 5726.0, 5943.0, 12660.0, 8598.0, 5776.0, 5798.0, 8514.0, 5983.0, 8593.0, 8516.0, 5887.0, 12699.0, 8539.0, 5939.0, 8575.0, 5839.0, 5802.0, 8465.0, 17014.0, 8593.0, 5807.0, 5861.0, 5883.0, 5883.0, 12790.0, 8457.0, 8638.0, 5733.0, 5949.0, 5890.0, 5895.0, 8502.0, 5832.0, 5878.0, 5945.0, 8468.0, 8639.0, 6020.0, 16976.0, 8554.0, 5860.0, 5841.0, 8661.0, 8550.0, 5821.0, 8533.0, 5895.0, 5885.0, 5767.0, 8531.0, 5928.0, 5816.0, 5914.0, 12721.0, 8659.0, 6000.0, 8634.0, 8638.0, 16896.0, 5741.0, 5866.0, 8538.0, 5861.0, 5885.0]
    },
    "slices": {}
  }
}