{
  "AcquisitionMatrixPE": 110,
  "AcquisitionNumber": 1,
  "AcquisitionTime": "10:55:34.415000",
  "BandwidthPerPixelPhaseEncode": 12.987,
  "BaseResolution": 110,
  "BodyPartExamined": "BRAIN",
  "CoilCombinationMethod": "Sum of Squares",
  "ConsistencyInfo": "N4_VE11C_LATEST_20160120",
  "ConversionSoftware": "dcm2niix",
  "ConversionSoftwareVersion": "v1.0.20211006",
  "DerivedVendorReportedEchoSpacing": 0.000700001,
  "DeviceSerialNumber": "167006",
  "DiffusionScheme": "Monopolar",
  "DwellTime": 2.7e-06,
  "EchoTime": 0.0768,
  "EchoTrainLength": 83,
  "EffectiveEchoSpacing": 0.000700001,
  "FlipAngle": 78,
  "HeudiconvVersion": "0.5.3.post569+g418601f",
  "ImageComments": "Unaliased MB3/PE3/LB SENSE1",
  "ImageOrientationPatientDICOM": [1, 0, 0, 0, 0.838671, -0.544639],
  "ImageOrientationText": "Tra>Cor(-33.0)",
  "ImageType": [
    "ORIGINAL",
    "PRIMARY",
    "DIFFUSION",
    "NONE",
    "MB",
    "ND",
    "MOSAIC"
],
  "ImagingFrequency": 123.259,
  "InPlanePhaseEncodingDirectionDICOM": "COL",
  "InstitutionAddress": "Chemin Queen-Mary 4565,Montreal,District,CA,H3W 1W5",
  "InstitutionName": "IUGM",
  "InstitutionalDepartmentName": "Department",
  "MRAcquisitionType": "2D",
  "MagneticFieldStrength": 3,
  "Manufacturer": "Siemens",
  "ManufacturersModelName": "Prisma_fit",
  "MatrixCoilMode": "SENSE",
  "Modality": "MR",
  "MultibandAccelerationFactor": 3,
  "PartialFourier": 0.75,
  "PatientPosition": "HFS",
  "PercentPhaseFOV": 100,
  "PercentSampling": 100,
  "PhaseEncodingDirection": "j-",
  "PhaseEncodingSteps": 83,
  "PhaseResolution": 1,
  "PixelBandwidth": 1685,
  "ProcedureStepDescription": "anat^generic",
  "ProtocolName": "dMRI_dir106_AP_test_cmrr",
  "PulseSequenceDetails": "%CustomerSeq%\\cmrr_mbep2d_diff",
  "ReceiveCoilActiveElements": "HC1-7",
  "ReceiveCoilName": "HeadNeck_64",
  "ReconMatrixPE": 110,
  "RepetitionTime": 2.243,
  "SAR": 0.166067,
  "ScanOptions": "PFP\\EXT",
  "ScanningSequence": "EP",
  "SequenceName": "ep_b5#1",
  "SequenceVariant": "SK\\SS",
  "SeriesDescription": "dMRI_dir106_AP_test_cmrr",
  "SeriesNumber": 7,
  "ShimSetting": [631, -7197, -8851, 346, -24, -172, 82, 14],
  "SliceThickness": 2,
  "SliceTiming": [0, 1.17, 0.1175, 1.2875, 0.235, 1.405, 0.3525, 1.5225, 0.47, 1.64, 0.585, 1.755, 0.7025, 1.8725, 0.82, 1.99, 0.9375, 2.1075, 1.055, 0, 1.17, 0.1175, 1.2875, 0.235, 1.405, 0.3525, 1.5225, 0.47, 1.64, 0.585, 1.755, 0.7025, 1.8725, 0.82, 1.99, 0.9375, 2.1075, 1.055, 0, 1.17, 0.1175, 1.2875, 0.235, 1.405, 0.3525, 1.5225, 0.47, 1.64, 0.585, 1.755, 0.7025, 1.8725, 0.82, 1.99, 0.9375, 2.1075, 1.055],
  "SoftwareVersions": "syngo MR E11",
  "SpacingBetweenSlices": 2,
  "StationName": "MRC35049",
  "TotalReadoutTime": 0.0763001,
  "TxRefAmp": 253.673,
  "WipMemBlock": "cc17199a-8f40-4014-9982-0f065f1c5199||Sequence: R016 ve11c/master r/e634e98; Dec 19 2017 11:11:25 by eja",
  "dcmmeta_affine": [
    [-2.0, 0.0, 0.0, 112.69306945800781],
    [0.0, 1.677341103553772, -1.0892781019210815, -62.965904235839844],
    [0.0, 1.0892781019210815, 1.677341103553772, -94.76731872558594],
    [0.0, 0.0, 0.0, 1.0]
],
  "dcmmeta_reorient_transform": [
    [0.0, -1.0, 0.0, 109.0],
    [1.0, 0.0, 0.0, 0.0],
    [0.0, 0.0, 1.0, 0.0],
    [0.0, 0.0, 0.0, 1.0]
],
  "dcmmeta_shape": [110, 110, 57, 107],
  "dcmmeta_slice_dim": 2,
  "dcmmeta_version": 0.6,
  "global": {
    "const": {
      "AcquisitionMatrix": [110, 0, 0, 110],
      "AngioFlag": "N",
      "BitsAllocated": 16,
      "BitsStored": 16,
      "BodyPartExamined": "BRAIN",
      "CardiacNumberOfImages": 1,
      "Columns": 880,
      "EchoNumbers": 1,
      "EchoTime": 76.8,
      "EchoTrainLength": 83,
      "FlipAngle": 78.0,
      "HighBit": 15,
      "ImageOrientationPatient": [1.0, 0.0, 0.0, 0.0, 0.83867056370374, -0.5446390415466],
      "ImagePositionPatient": [-882.69306826591, -765.64061356112, 443.33605605446],
      "ImageType": [
        "ORIGINAL",
        "PRIMARY",
        "DIFFUSION",
        "NONE",
        "MB",
        "ND",
        "MOSAIC"
],
      "ImagedNucleus": "1H",
      "ImagingFrequency": 123.258828,
      "InPlanePhaseEncodingDirection": "COL",
      "MRAcquisitionType": "2D",
      "MagneticFieldStrength": 3.0,
      "Manufacturer": "SIEMENS",
      "ManufacturerModelName": "Prisma_fit",
      "Modality": "MR",
      "NominalInterval": 0,
      "NumberOfAverages": 1.0,
      "NumberOfPhaseEncodingSteps": 83,
      "PercentPhaseFieldOfView": 100.0,
      "PercentSampling": 100.0,
      "PerformedProcedureStepStartTime": "095518.965000",
      "PhotometricInterpretation": "MONOCHROME2",
      "PixelBandwidth": 1685.0,
      "PixelRepresentation": 0,
      "PixelSpacing": [2.0, 2.0],
      "ProtocolName": "dMRI_dir106_AP_test_cmrr",
      "RepetitionTime": 2243.0,
      "Rows": 880,
      "SAR": 0.16606703023064,
      "SamplesPerPixel": 1,
      "ScanOptions": [
        "PFP",
        "EXT"
],
      "ScanningSequence": "EP",
      "SequenceVariant": [
        "SK",
        "SS"
],
      "SeriesDescription": "dMRI_dir106_AP_test_cmrr",
      "SeriesNumber": 7,
      "SeriesTime": "105623.008000",
      "SliceLocation": -45.184869897732,
      "SliceThickness": 2.0,
      "SmallestImagePixelValue": 0,
      "SoftwareVersions": "syngo MR E11",
      "SpacingBetweenSlices": 1.999999976706,
      "SpecificCharacterSet": "ISO_IR 100",
      "StudyID": "1",
      "StudyTime": "095518.789000",
      "TransmitCoilName": "Body",
      "VariableFlipAngleFlag": "N",
      "WindowCenterWidthExplanation": "Algo1",
      "dBdt": 0.0},
    "slices": {}
  },
  "time": {
    "samples": {
      "AcquisitionNumber": [1, 2, 3, 4, 5, 6, 7, 8, 9, 10, 11, 12, 13, 14, 15, 16, 17, 18, 19, 20, 21, 22, 23, 24, 25, 26, 27, 28, 29, 30, 31, 32, 33, 34, 35, 36, 37, 38, 39, 40, 41, 42, 43, 44, 45, 46, 47, 48, 49, 50, 51, 52, 53, 54, 55, 56, 57, 58, 59, 60, 61, 62, 63, 64, 65, 66, 67, 68, 69, 70, 71, 72, 73, 74, 75, 76, 77, 78, 79, 80, 81, 82, 83, 84, 85, 86, 87, 88, 89, 90, 91, 92, 93, 94, 95, 96, 97, 98, 99, 100, 101, 102, 103, 104, 105, 106, 107],
      "AcquisitionTime": ["105534.415000", "105536.660000", "105538.902500", "105541.145000", "105543.387500", "105545.630000", "105547.875000", "105550.117500", "105552.360000", "105554.602500", "105556.845000", "105559.090000", "105601.332500", "105603.575000", "105605.817500", "105608.060000", "105610.305000", "105612.547500", "105614.790000", "105617.032500", "105619.275000", "105621.520000", "105623.762500", "105626.005000", "105628.247500", "105630.490000", "105632.735000", "105634.977500", "105637.220000", "105639.462500", "105641.705000", "105643.950000", "105646.192500", "105648.435000", "105650.677500", "105652.920000", "105655.165000", "105657.407500", "105659.650000", "105701.892500", "105704.135000", "105706.380000", "105708.622500", "105710.865000", "105713.107500", "105715.350000", "105717.595000", "105719.837500", "105722.080000", "105724.322500", "105726.565000", "105728.810000", "105731.052500", "105733.295000", "105735.537500", "105737.780000", "105740.025000", "105742.267500", "105744.510000", "105746.752500", "105748.995000", "105751.240000", "105753.482500", "105755.725000", "105757.967500", "105800.210000", "105802.455000", "105804.697500", "105806.940000", "105809.182500", "105811.425000", "105813.670000", "105815.912500", "105818.155000", "105820.397500", "105822.640000", "105824.885000", "105827.127500", "105829.370000", "105831.612500", "105833.855000", "105836.100000", "105838.342500", "105840.585000", "105842.827500", "105845.070000", "105847.315000", "105849.557500", "105851.800000", "105854.042500", "105856.285000", "105858.530000", "105900.772500", "105903.015000", "105905.257500", "105907.500000", "105909.745000", "105911.987500", "105914.230000", "105916.472500", "105918.715000", "105920.960000", "105923.202500", "105925.445000", "105927.687500", "105929.930000", "105932.175000"],
      "ContentTime": ["105623.011000", "105623.014000", "105623.017000", "105623.021000", "105623.024000", "105623.037000", "105623.040000", "105623.043000", "105623.047000", "105623.050000", "105623.053000", "105623.059000", "105623.062000", "105623.065000", "105623.069000", "105623.073000", "105623.076000", "105623.079000", "105623.082000", "105623.085000", "105623.088000", "105723.009000", "105723.012000", "105723.016000", "105723.019000", "105723.022000", "105723.025000", "105723.028000", "105723.031000", "105723.035000", "105723.038000", "105723.041000", "105723.044000", "105723.047000", "105723.050000", "105723.053000", "105723.061000", "105723.064000", "105723.067000", "105723.070000", "105723.073000", "105723.076000", "105723.080000", "105723.083000", "105723.086000", "105723.089000", "105723.092000", "105723.095000", "105823.009000", "105823.012000", "105823.015000", "105823.019000", "105823.022000", "105823.025000", "105823.028000", "105823.031000", "105823.034000", "105823.037000", "105823.041000", "105823.044000", "105823.047000", "105823.050000", "105823.053000", "105823.056000", "105823.059000", "105823.062000", "105823.066000", "105823.069000", "105823.072000", "105823.075000", "105823.085000", "105823.088000", "105823.097000", "105823.113000", "105823.117000", "105923.009000", "105923.012000", "105923.016000", "105923.019000", "105923.022000", "105923.025000", "105923.028000", "105923.031000", "105923.034000", "105923.037000", "105923.040000", "105923.044000", "105923.047000", "105923.050000", "105923.053000", "105923.056000", "105923.059000", "105923.062000", "105923.065000", "105923.068000", "105923.072000", "105923.075000", "105923.078000", "105923.081000", "105923.084000", "105923.087000", "105936.580000", "105936.583000", "105936.586000", "105936.589000", "105936.592000", "105936.595000"],
      "InstanceCreationTime": ["105623.011000", "105623.014000", "105623.017000", "105623.021000", "105623.024000", "105623.037000", "105623.040000", "105623.043000", "105623.047000", "105623.050000", "105623.053000", "105623.059000", "105623.062000", "105623.065000", "105623.069000", "105623.073000", "105623.076000", "105623.079000", "105623.082000", "105623.085000", "105623.088000", "105723.009000", "105723.012000", "105723.016000", "105723.019000", "105723.022000", "105723.025000", "105723.028000", "105723.031000", "105723.035000", "105723.038000", "105723.041000", "105723.044000", "105723.047000", "105723.050000", "105723.053000", "105723.061000", "105723.064000", "105723.067000", "105723.070000", "105723.073000", "105723.076000", "105723.080000", "105723.083000", "105723.086000", "105723.089000", "105723.092000", "105723.095000", "105823.009000", "105823.012000", "105823.015000", "105823.019000", "105823.022000", "105823.025000", "105823.028000", "105823.031000", "105823.034000", "105823.037000", "105823.041000", "105823.044000", "105823.047000", "105823.050000", "105823.053000", "105823.056000", "105823.059000", "105823.062000", "105823.066000", "105823.069000", "105823.072000", "105823.075000", "105823.085000", "105823.088000", "105823.097000", "105823.113000", "105823.117000", "105923.009000", "105923.012000", "105923.016000", "105923.019000", "105923.022000", "105923.025000", "105923.028000", "105923.031000", "105923.034000", "105923.037000", "105923.040000", "105923.044000", "105923.047000", "105923.050000", "105923.053000", "105923.056000", "105923.059000", "105923.062000", "105923.065000", "105923.068000", "105923.072000", "105923.075000", "105923.078000", "105923.081000", "105923.084000", "105923.087000", "105936.580000", "105936.583000", "105936.586000", "105936.589000", "105936.592000", "105936.595000"],
      "InstanceNumber": [1, 2, 3, 4, 5, 6, 7, 8, 9, 10, 11, 12, 13, 14, 15, 16, 17, 18, 19, 20, 21, 22, 23, 24, 25, 26, 27, 28, 29, 30, 31, 32, 33, 34, 35, 36, 37, 38, 39, 40, 41, 42, 43, 44, 45, 46, 47, 48, 49, 50, 51, 52, 53, 54, 55, 56, 57, 58, 59, 60, 61, 62, 63, 64, 65, 66, 67, 68, 69, 70, 71, 72, 73, 74, 75, 76, 77, 78, 79, 80, 81, 82, 83, 84, 85, 86, 87, 88, 89, 90, 91, 92, 93, 94, 95, 96, 97, 98, 99, 100, 101, 102, 103, 104, 105, 106, 107],
      "LargestImagePixelValue": [58347, 57903, 13252, 8732, 13812, 13698, 26413, 8922, 8300, 8708, 14028, 25358, 9291, 8563, 8438, 8972, 13638, 8664, 8698, 8071, 8846, 51368, 14785, 8589, 13282, 13868, 8648, 8685, 8957, 8626, 26134, 8166, 13877, 8824, 8655, 25355, 8609, 9174, 13803, 8924, 8772, 49982, 8827, 8567, 8968, 26658, 13531, 8893, 8026, 13463, 8523, 14362, 13077, 8647, 26998, 13723, 8903, 12741, 8465, 8193, 12788, 53343, 13608, 8356, 8390, 9077, 8840, 26684, 14670, 14145, 8379, 8533, 8706, 8626, 14792, 8225, 8483, 8932, 14520, 14331, 8722, 51820, 13958, 8642, 8528, 14874, 13163, 8687, 13418, 8252, 8249, 8085, 12959, 8467, 8179, 8513, 25291, 13975, 8429, 14039, 14527, 51416, 8384, 8784, 12950, 8484, 8552],
      "SequenceName": [
 "ep_b5#1",
 "ep_b5#1",
 "ep_b1000#2",
 "ep_b2005#3",
 "ep_b1000#4",
 "ep_b995#5",
 "ep_b300#6",
 "ep_b1995#7",
 "ep_b2000#8",
 "ep_b2000#9",
 "ep_b995#10",
 "ep_b300#11",
 "ep_b1990#12",
 "ep_b2010#13",
 "ep_b2000#14",
 "ep_b2000#15",
 "ep_b1000#16",
 "ep_b2000#17",
 "ep_b2000#18",
 "ep_b2000#19",
 "ep_b1990#20",
 "ep_b5#21",
 "ep_b995#22",
 "ep_b1995#23",
 "ep_b1000#24",
 "ep_b1000#25",
 "ep_b2000#26",
 "ep_b1995#27",
 "ep_b1990#28",
 "ep_b1995#29",
 "ep_b300#30",
 "ep_b2005#31",
 "ep_b1005#32",
 "ep_b2000#33",
 "ep_b1995#34",
 "ep_b300#35",
 "ep_b2005#36",
 "ep_b1995#37",
 "ep_b1005#38",
 "ep_b2000#39",
 "ep_b2005#40",
 "ep_b5#41",
 "ep_b1995#42",
 "ep_b2005#43",
 "ep_b1995#44",
 "ep_b305#45",
 "ep_b1005#46",
 "ep_b2010#47",
 "ep_b1995#48",
 "ep_b1005#49",
 "ep_b2000#50",
 "ep_b995#51",
 "ep_b1000#52",
 "ep_b1995#53",
 "ep_b300#54",
 "ep_b995#55",
 "ep_b2000#56",
 "ep_b1000#57",
 "ep_b2010#58",
 "ep_b2000#59",
 "ep_b1005#60",
 "ep_b5#61",
 "ep_b1000#62",
 "ep_b1995#63",
 "ep_b2000#64",
 "ep_b2005#65",
 "ep_b2010#66",
 "ep_b300#67",
 "ep_b1005#68",
 "ep_b1000#69",
 "ep_b2005#70",
 "ep_b1995#71",
 "ep_b2005#72",
 "ep_b2000#73",
 "ep_b1005#74",
 "ep_b2000#75",
 "ep_b2005#76",
 "ep_b1995#77",
 "ep_b1005#78",
 "ep_b1000#79",
 "ep_b1995#80",
 "ep_b5#81",
 "ep_b995#82",
 "ep_b2005#83",
 "ep_b2005#84",
 "ep_b995#85",
 "ep_b1000#86",
 "ep_b1995#87",
 "ep_b1005#88",
 "ep_b2005#89",
 "ep_b2005#90",
 "ep_b1995#91",
 "ep_b1005#92",
 "ep_b2005#93",
 "ep_b2000#94",
 "ep_b1995#95",
 "ep_b300#96",
 "ep_b1000#97",
 "ep_b2000#98",
 "ep_b1000#99",
 "ep_b995#100",
 "ep_b5#101",
 "ep_b2005#102",
 "ep_b2005#103",
 "ep_b1000#104",
 "ep_b2005#105",
 "ep_b1995#106"
],
      "TriggerTime": [12835.0, 15080.0, 17322.5, 19565.0, 21807.5, 24050.0, 26295.0, 28537.5, 30780.0, 33022.5, 35265.0, 37510.0, 39752.5, 41995.0, 44237.5, 46480.0, 48725.0, 50967.5, 53210.0, 55452.5, 57695.0, 59940.0, 62182.5, 64425.0, 66667.5, 68910.0, 71155.0, 73397.5, 75640.0, 77882.5, 80125.0, 82370.0, 84612.5, 86855.0, 89097.5, 91340.0, 93585.0, 95827.5, 98070.0, 100312.5, 102555.0, 104800.0, 107042.5, 109285.0, 111527.5, 113770.0, 116015.0, 118257.5, 120500.0, 122742.5, 124985.0, 127230.0, 129472.5, 131715.0, 133957.5, 136200.0, 138445.0, 140687.5, 142930.0, 145172.5, 147415.0, 149660.0, 151902.5, 154145.0, 156387.5, 158630.0, 160875.0, 163117.5, 165360.0, 167602.5, 169845.0, 172090.0, 174332.5, 176575.0, 178817.5, 181060.0, 183305.0, 185547.5, 187790.0, 190032.5, 192275.0, 194520.0, 196762.5, 199005.0, 201247.5, 203490.0, 205735.0, 207977.5, 210220.0, 212462.5, 214705.0, 216950.0, 219192.5, 221435.0, 223677.5, 225920.0, 228165.0, 230407.5, 232650.0, 234892.5, 237135.0, 239380.0, 241622.5, 243865.0, 246107.5, 248350.0, 250595.0],
      "WindowCenter": [7911.0, 7894.0, 3521.0, 2304.0, 3561.0, 3478.0, 5686.0, 2288.0, 2261.0, 2245.0, 3567.0, 5679.0, 2264.0, 2231.0, 2252.0, 2302.0, 3539.0, 2287.0, 2289.0, 2294.0, 2271.0, 7776.0, 3565.0, 2278.0, 3549.0, 3524.0, 2291.0, 2216.0, 2283.0, 2239.0, 5629.0, 2227.0, 3521.0, 2305.0, 2252.0, 5672.0, 2266.0, 2283.0, 3475.0, 2269.0, 2214.0, 7695.0, 2283.0, 2222.0, 2284.0, 5620.0, 3525.0, 2229.0, 2212.0, 3540.0, 2290.0, 3543.0, 3505.0, 2285.0, 5612.0, 3524.0, 2319.0, 3535.0, 2267.0, 2263.0, 3456.0, 7729.0, 3526.0, 2224.0, 2284.0, 2271.0, 2267.0, 5641.0, 3501.0, 3538.0, 2221.0, 2274.0, 2276.0, 2298.0, 3517.0, 2255.0, 2282.0, 2286.0, 3511.0, 3571.0, 2290.0, 7729.0, 3494.0, 2268.0, 2256.0, 3556.0, 3525.0, 2237.0, 3512.0, 2271.0, 2278.0, 2220.0, 3534.0, 2275.0, 2252.0, 2273.0, 5593.0, 3558.0, 2297.0, 3538.0, 3539.0, 7725.0, 2206.0, 2238.0, 3449.0, 2258.0, 2273.0],
      "WindowWidth": [17278.0, 17249.0, 8152.0, 5655.0, 8232.0, 8058.0, 12457.0, 5613.0, 5573.0, 5509.0, 8237.0, 12460.0, 5550.0, 5478.0, 5536.0, 5643.0, 8180.0, 5613.0, 5603.0, 5642.0, 5573.0, 16998.0, 8230.0, 5575.0, 8206.0, 8150.0, 5631.0, 5447.0, 5590.0, 5511.0, 12341.0, 5497.0, 8142.0, 5653.0, 5530.0, 12448.0, 5558.0, 5596.0, 8053.0, 5551.0, 5437.0, 16851.0, 5591.0, 5468.0, 5595.0, 12328.0, 8155.0, 5475.0, 5438.0, 8188.0, 5625.0, 8193.0, 8114.0, 5607.0, 12310.0, 8149.0, 5682.0, 8180.0, 5556.0, 5552.0, 8026.0, 16897.0, 8156.0, 5478.0, 5607.0, 5575.0, 5553.0, 12380.0, 8104.0, 8171.0, 5463.0, 5587.0, 5572.0, 5632.0, 8128.0, 5551.0, 5597.0, 5610.0, 8135.0, 8245.0, 5625.0, 16895.0, 8093.0, 5555.0, 5546.0, 8212.0, 8164.0, 5494.0, 8134.0, 5575.0, 5584.0, 5467.0, 8175.0, 5589.0, 5531.0, 5587.0, 12275.0, 8224.0, 5648.0, 8176.0, 8184.0, 16910.0, 5436.0, 5501.0, 8009.0, 5561.0, 5581.0]
    },
    "slices": {}
  }
}