{
  "AcquisitionMatrixPE": 110,
  "AcquisitionNumber": 1,
  "AcquisitionTime": "17:49:17.330000",
  "BandwidthPerPixelPhaseEncode": 12.987,
  "BaseResolution": 110,
  "BodyPartExamined": "BRAIN",
  "CoilCombinationMethod": "Sum of Squares",
  "ConsistencyInfo": "N4_VE11C_LATEST_20160120",
  "ConversionSoftware": "dcm2niix",
  "ConversionSoftwareVersion": "v1.0.20211006",
  "DerivedVendorReportedEchoSpacing": 0.000700001,
  "DeviceSerialNumber": "167006",
  "DiffusionScheme": "Monopolar",
  "DwellTime": 2.7e-06,
  "EchoTime": 0.0816,
  "EchoTrainLength": 83,
  "EffectiveEchoSpacing": 0.000700001,
  "FlipAngle": 78,
  "HeudiconvVersion": "0.5.3.post569+g418601f",
  "ImageComments": "Unaliased MB3/PE3/LB SENSE1",
  "ImageOrientationPatientDICOM": [1, 0, 0, 0, 0.939693, -0.34202],
  "ImageOrientationText": "Tra>Cor(-20.0)",
  "ImageType": [
    "ORIGINAL",
    "PRIMARY",
    "DIFFUSION",
    "NONE",
    "MB",
    "ND",
    "MOSAIC"
],
  "ImagingFrequency": 123.259,
  "InPlanePhaseEncodingDirectionDICOM": "COL",
  "InstitutionAddress": "Chemin Queen-Mary 4565,Montreal,District,CA,H3W 1W5",
  "InstitutionName": "IUGM",
  "InstitutionalDepartmentName": "Department",
  "MRAcquisitionType": "2D",
  "MagneticFieldStrength": 3,
  "Manufacturer": "Siemens",
  "ManufacturersModelName": "Prisma_fit",
  "MatrixCoilMode": "SENSE",
  "Modality": "MR",
  "MultibandAccelerationFactor": 3,
  "PartialFourier": 0.75,
  "PatientPosition": "HFS",
  "PercentPhaseFOV": 100,
  "PercentSampling": 100,
  "PhaseEncodingDirection": "j-",
  "PhaseEncodingSteps": 83,
  "PhaseResolution": 1,
  "PixelBandwidth": 1685,
  "ProcedureStepDescription": "anat^generic",
  "ProtocolName": "dMRI_dir98_AP_test_cmrr",
  "PulseSequenceDetails": "%CustomerSeq%\\cmrr_mbep2d_diff",
  "ReceiveCoilActiveElements": "HC1-6",
  "ReceiveCoilName": "HeadNeck_64",
  "ReconMatrixPE": 110,
  "RepetitionTime": 2.334,
  "SAR": 0.13293,
  "ScanOptions": "PFP\\EXT",
  "ScanningSequence": "EP",
  "SequenceName": "ep_b5#1",
  "SequenceVariant": "SK\\SS",
  "SeriesDescription": "dMRI_dir98_AP_test_cmrr",
  "SeriesNumber": 7,
  "ShimSetting": [617, -7233, -8857, 484, 12, -348, 42, 48],
  "SliceThickness": 2,
  "SliceTiming": [0, 1.2175, 0.1225, 1.34, 0.2425, 1.46, 0.365, 1.5825, 0.4875, 1.705, 0.6075, 1.825, 0.73, 1.9475, 0.8525, 2.07, 0.975, 2.1925, 1.095, 0, 1.2175, 0.1225, 1.34, 0.2425, 1.46, 0.365, 1.5825, 0.4875, 1.705, 0.6075, 1.825, 0.73, 1.9475, 0.8525, 2.07, 0.975, 2.1925, 1.095, 0, 1.2175, 0.1225, 1.34, 0.2425, 1.46, 0.365, 1.5825, 0.4875, 1.705, 0.6075, 1.825, 0.73, 1.9475, 0.8525, 2.07, 0.975, 2.1925, 1.095],
  "SoftwareVersions": "syngo MR E11",
  "SpacingBetweenSlices": 2,
  "StationName": "MRC35049",
  "TotalReadoutTime": 0.0763001,
  "TxRefAmp": 236,
  "WipMemBlock": "89e62be1-caad-47ea-bc11-55ba75c2d67d||Sequence: R016 ve11c/master r/e634e98; Dec 19 2017 11:11:25 by eja",
  "dcmmeta_affine": [
    [-2.0, 0.0, 0.0, 109.49686431884766],
    [0.0, 1.879385232925415, -0.6840403079986572, -77.78489685058594],
    [0.0, 0.6840403079986572, 1.879385232925415, -75.04898834228516],
    [0.0, 0.0, 0.0, 1.0]
],
  "dcmmeta_reorient_transform": [
    [0.0, -1.0, 0.0, 109.0],
    [1.0, 0.0, 0.0, 0.0],
    [0.0, 0.0, 1.0, 0.0],
    [0.0, 0.0, 0.0, 1.0]
],
  "dcmmeta_shape": [110, 110, 57, 99],
  "dcmmeta_slice_dim": 2,
  "dcmmeta_version": 0.6,
  "global": {
    "const": {
      "AcquisitionMatrix": [110, 0, 0, 110],
      "AngioFlag": "N",
      "BitsAllocated": 16,
      "BitsStored": 16,
      "BodyPartExamined": "BRAIN",
      "CardiacNumberOfImages": 1,
      "Columns": 880,
      "EchoNumbers": 1,
      "EchoTime": 81.6,
      "EchoTrainLength": 83,
      "FlipAngle": 78.0,
      "HighBit": 15,
      "ImageOrientationPatient": [1.0, 0.0, 0.0, 0.0, 0.93969261856831, -0.3420201494185],
      "ImagePositionPatient": [-879.49686384201, -850.63140672964, 262.86692216208],
      "ImageType": [
        "ORIGINAL",
        "PRIMARY",
        "DIFFUSION",
        "NONE",
        "MB",
        "ND",
        "MOSAIC"
],
      "ImagedNucleus": "1H",
      "ImagingFrequency": 123.258917,
      "InPlanePhaseEncodingDirection": "COL",
      "MRAcquisitionType": "2D",
      "MagneticFieldStrength": 3.0,
      "Manufacturer": "SIEMENS",
      "ManufacturerModelName": "Prisma_fit",
      "Modality": "MR",
      "NominalInterval": 0,
      "NumberOfAverages": 1.0,
      "NumberOfPhaseEncodingSteps": 83,
      "PercentPhaseFieldOfView": 100.0,
      "PercentSampling": 100.0,
      "PerformedProcedureStepStartTime": "173002.866000",
      "PhotometricInterpretation": "MONOCHROME2",
      "PixelBandwidth": 1685.0,
      "PixelRepresentation": 0,
      "PixelSpacing": [2.0, 2.0],
      "ProtocolName": "dMRI_dir98_AP_test_cmrr",
      "RepetitionTime": 2334.0,
      "Rows": 880,
      "SAR": 0.13292955842582,
      "SamplesPerPixel": 1,
      "ScanOptions": [
        "PFP",
        "EXT"
],
      "ScanningSequence": "EP",
      "SequenceVariant": [
        "SK",
        "SS"
],
      "SeriesDescription": "dMRI_dir98_AP_test_cmrr",
      "SeriesNumber": 7,
      "SeriesTime": "174927.760000",
      "SliceLocation": -43.918974408236,
      "SliceThickness": 2.0,
      "SmallestImagePixelValue": 0,
      "SoftwareVersions": "syngo MR E11",
      "SpacingBetweenSlices": 2.0000000195329,
      "SpecificCharacterSet": "ISO_IR 100",
      "StudyID": "1",
      "StudyTime": "173002.809000",
      "TransmitCoilName": "Body",
      "VariableFlipAngleFlag": "N",
      "WindowCenterWidthExplanation": "Algo1",
      "dBdt": 0.0},
    "slices": {}
  },
  "time": {
    "samples": {
      "AcquisitionNumber": [1, 2, 3, 4, 5, 6, 7, 8, 9, 10, 11, 12, 13, 14, 15, 16, 17, 18, 19, 20, 21, 22, 23, 24, 25, 26, 27, 28, 29, 30, 31, 32, 33, 34, 35, 36, 37, 38, 39, 40, 41, 42, 43, 44, 45, 46, 47, 48, 49, 50, 51, 52, 53, 54, 55, 56, 57, 58, 59, 60, 61, 62, 63, 64, 65, 66, 67, 68, 69, 70, 71, 72, 73, 74, 75, 76, 77, 78, 79, 80, 81, 82, 83, 84, 85, 86, 87, 88, 89, 90, 91, 92, 93, 94, 95, 96, 97, 98, 99],
      "AcquisitionTime": ["174917.330000", "174919.662500", "174921.997500", "174924.332500", "174926.665000", "174929.000000", "174931.332500", "174933.667500", "174936.002500", "174938.335000", "174940.670000", "174943.002500", "174945.337500", "174947.672500", "174950.005000", "174952.340000", "174954.672500", "174957.007500", "174959.342500", "175001.675000", "175004.010000", "175006.342500", "175008.677500", "175011.012500", "175013.345000", "175015.680000", "175018.012500", "175020.347500", "175022.682500", "175025.015000", "175027.350000", "175029.682500", "175032.017500", "175034.352500", "175036.685000", "175039.020000", "175041.352500", "175043.687500", "175046.022500", "175048.355000", "175050.690000", "175053.022500", "175055.357500", "175057.692500", "175100.025000", "175102.360000", "175104.692500", "175107.027500", "175109.362500", "175111.695000", "175114.030000", "175116.362500", "175118.697500", "175121.032500", "175123.365000", "175125.700000", "175128.032500", "175130.367500", "175132.702500", "175135.035000", "175137.370000", "175139.702500", "175142.037500", "175144.372500", "175146.705000", "175149.040000", "175151.372500", "175153.707500", "175156.042500", "175158.375000", "175200.710000", "175203.042500", "175205.377500", "175207.712500", "175210.045000", "175212.380000", "175214.712500", "175217.047500", "175219.382500", "175221.715000", "175224.050000", "175226.382500", "175228.717500", "175231.052500", "175233.385000", "175235.720000", "175238.052500", "175240.387500", "175242.722500", "175245.055000", "175247.390000", "175249.722500", "175252.057500", "175254.392500", "175256.725000", "175259.060000", "175301.392500", "175303.727500", "175306.062500"],
      "ContentTime": ["174927.762000", "174927.766000", "174927.769000", "175027.729000", "175027.736000", "175027.739000", "175027.742000", "175027.745000", "175027.748000", "175027.751000", "175027.754000", "175027.757000", "175027.767000", "175027.770000", "175027.773000", "175027.776000", "175027.780000", "175027.783000", "175027.786000", "175027.789000", "175027.791000", "175027.794000", "175027.797000", "175027.800000", "175027.805000", "175027.808000", "175027.811000", "175027.814000", "175027.818000", "175127.729000", "175127.732000", "175127.735000", "175127.738000", "175127.741000", "175127.744000", "175127.747000", "175127.750000", "175127.753000", "175127.756000", "175127.759000", "175127.762000", "175127.766000", "175127.769000", "175127.779000", "175127.782000", "175127.785000", "175127.788000", "175127.791000", "175127.794000", "175127.797000", "175127.800000", "175127.803000", "175127.806000", "175127.809000", "175127.813000", "175227.729000", "175227.732000", "175227.735000", "175227.738000", "175227.741000", "175227.744000", "175227.748000", "175227.751000", "175227.754000", "175227.757000", "175227.760000", "175227.763000", "175227.766000", "175227.769000", "175227.772000", "175227.775000", "175227.789000", "175227.792000", "175227.795000", "175227.799000", "175227.802000", "175227.805000", "175227.807000", "175227.811000", "175227.814000", "175227.817000", "175311.344000", "175311.348000", "175311.351000", "175311.359000", "175311.362000", "175311.365000", "175311.368000", "175311.376000", "175311.379000", "175311.382000", "175311.385000", "175311.388000", "175311.391000", "175311.395000", "175311.398000", "175311.401000", "175311.404000", "175311.407000"],
      "InstanceCreationTime": ["174927.762000", "174927.766000", "174927.769000", "175027.729000", "175027.736000", "175027.739000", "175027.742000", "175027.745000", "175027.748000", "175027.751000", "175027.754000", "175027.757000", "175027.767000", "175027.770000", "175027.773000", "175027.776000", "175027.780000", "175027.783000", "175027.786000", "175027.789000", "175027.791000", "175027.794000", "175027.797000", "175027.800000", "175027.805000", "175027.808000", "175027.811000", "175027.814000", "175027.818000", "175127.729000", "175127.732000", "175127.735000", "175127.738000", "175127.741000", "175127.744000", "175127.747000", "175127.750000", "175127.753000", "175127.756000", "175127.759000", "175127.762000", "175127.766000", "175127.769000", "175127.779000", "175127.782000", "175127.785000", "175127.788000", "175127.791000", "175127.794000", "175127.797000", "175127.800000", "175127.803000", "175127.806000", "175127.809000", "175127.813000", "175227.729000", "175227.732000", "175227.735000", "175227.738000", "175227.741000", "175227.744000", "175227.748000", "175227.751000", "175227.754000", "175227.757000", "175227.760000", "175227.763000", "175227.766000", "175227.769000", "175227.772000", "175227.775000", "175227.789000", "175227.792000", "175227.795000", "175227.799000", "175227.802000", "175227.805000", "175227.807000", "175227.811000", "175227.814000", "175227.817000", "175311.344000", "175311.348000", "175311.351000", "175311.359000", "175311.362000", "175311.365000", "175311.368000", "175311.376000", "175311.379000", "175311.382000", "175311.385000", "175311.388000", "175311.391000", "175311.395000", "175311.398000", "175311.401000", "175311.404000", "175311.407000"],
      "InstanceNumber": [1, 2, 3, 4, 5, 6, 7, 8, 9, 10, 11, 12, 13, 14, 15, 16, 17, 18, 19, 20, 21, 22, 23, 24, 25, 26, 27, 28, 29, 30, 31, 32, 33, 34, 35, 36, 37, 38, 39, 40, 41, 42, 43, 44, 45, 46, 47, 48, 49, 50, 51, 52, 53, 54, 55, 56, 57, 58, 59, 60, 61, 62, 63, 64, 65, 66, 67, 68, 69, 70, 71, 72, 73, 74, 75, 76, 77, 78, 79, 80, 81, 82, 83, 84, 85, 86, 87, 88, 89, 90, 91, 92, 93, 94, 95, 96, 97, 98, 99],
      "LargestImagePixelValue": [49301, 50221, 9042, 3567, 8398, 4788, 8388, 4267, 8204, 4514, 8648, 3540, 8949, 4223, 8126, 4136, 7816, 50934, 4892, 8360, 3668, 8098, 3807, 8157, 4006, 8630, 4409, 9120, 4052, 8173, 4353, 8277, 3802, 54169, 9777, 3836, 8134, 4581, 8192, 3775, 8074, 3646, 8605, 4657, 8131, 3799, 7674, 4810, 8110, 50007, 4689, 8348, 3909, 9128, 4215, 8059, 3968, 8862, 4204, 8277, 4224, 8710, 4378, 7953, 3589, 44564, 9077, 4327, 8281, 3784, 7867, 3845, 7725, 4134, 8217, 3867, 8653, 3823, 8772, 4337, 7679, 47645, 5143, 7968, 3806, 9399, 4369, 8003, 3445, 8737, 4669, 7562, 3790, 8294, 4790, 7786, 4329, 8608, 4292],
      "SequenceName": [
 "ep_b5#1",
 "ep_b5#1",
 "ep_b1490#2",
 "ep_b2990#3",
 "ep_b1495#4",
 "ep_b3005#5",
 "ep_b1500#6",
 "ep_b2985#7",
 "ep_b1495#8",
 "ep_b3005#9",
 "ep_b1490#10",
 "ep_b2995#11",
 "ep_b1495#12",
 "ep_b2990#13",
 "ep_b1500#14",
 "ep_b2985#15",
 "ep_b1500#16",
 "ep_b5#17",
 "ep_b3005#18",
 "ep_b1490#19",
 "ep_b2995#20",
 "ep_b1495#21",
 "ep_b3000#22",
 "ep_b1495#23",
 "ep_b3000#24",
 "ep_b1490#25",
 "ep_b2985#26",
 "ep_b1505#27",
 "ep_b2990#28",
 "ep_b1495#29",
 "ep_b3000#30",
 "ep_b1490#31",
 "ep_b3000#32",
 "ep_b5#33",
 "ep_b1505#34",
 "ep_b3000#35",
 "ep_b1490#36",
 "ep_b2985#37",
 "ep_b1495#38",
 "ep_b2995#39",
 "ep_b1500#40",
 "ep_b2995#41",
 "ep_b1500#42",
 "ep_b2990#43",
 "ep_b1495#44",
 "ep_b3000#45",
 "ep_b1495#46",
 "ep_b3000#47",
 "ep_b1490#48",
 "ep_b5#49",
 "ep_b3000#50",
 "ep_b1495#51",
 "ep_b2990#52",
 "ep_b1505#53",
 "ep_b2995#54",
 "ep_b1495#55",
 "ep_b2990#56",
 "ep_b1490#57",
 "ep_b2995#58",
 "ep_b1500#59",
 "ep_b3000#60",
 "ep_b1500#61",
 "ep_b2985#62",
 "ep_b1500#63",
 "ep_b2990#64",
 "ep_b5#65",
 "ep_b1505#66",
 "ep_b3005#67",
 "ep_b1495#68",
 "ep_b3000#69",
 "ep_b1505#70",
 "ep_b3005#71",
 "ep_b1500#72",
 "ep_b3005#73",
 "ep_b1495#74",
 "ep_b2995#75",
 "ep_b1495#76",
 "ep_b2995#77",
 "ep_b1500#78",
 "ep_b3000#79",
 "ep_b1490#80",
 "ep_b5#81",
 "ep_b2990#82",
 "ep_b1500#83",
 "ep_b2985#84",
 "ep_b1495#85",
 "ep_b2995#86",
 "ep_b1495#87",
 "ep_b2995#88",
 "ep_b1490#89",
 "ep_b2985#90",
 "ep_b1500#91",
 "ep_b3000#92",
 "ep_b1495#93",
 "ep_b3005#94",
 "ep_b1495#95",
 "ep_b2990#96",
 "ep_b1500#97",
 "ep_b3000#98"
],
      "TriggerTime": [13297.5, 15630.0, 17965.0, 20297.5, 22632.5, 24967.5, 27300.0, 29635.0, 31967.5, 34302.5, 36637.5, 38970.0, 41305.0, 43637.5, 45972.5, 48307.5, 50640.0, 52975.0, 55307.5, 57642.5, 59977.5, 62310.0, 64645.0, 66977.5, 69312.5, 71647.5, 73980.0, 76315.0, 78647.5, 80982.5, 83317.5, 85650.0, 87985.0, 90317.5, 92652.5, 94987.5, 97320.0, 99655.0, 101987.5, 104322.5, 106657.5, 108990.0, 111325.0, 113657.5, 115992.5, 118327.5, 120660.0, 122995.0, 125327.5, 127662.5, 129997.5, 132330.0, 134665.0, 136997.5, 139332.5, 141667.5, 144000.0, 146335.0, 148667.5, 151002.5, 153337.5, 155670.0, 158005.0, 160337.5, 162672.5, 165007.5, 167340.0, 169675.0, 172007.5, 174342.5, 176677.5, 179010.0, 181345.0, 183677.5, 186012.5, 188347.5, 190680.0, 193015.0, 195347.5, 197682.5, 200017.5, 202350.0, 204685.0, 207017.5, 209352.5, 211687.5, 214020.0, 216355.0, 218687.5, 221022.5, 223357.5, 225690.0, 228025.0, 230357.5, 232692.5, 235027.5, 237360.0, 239695.0, 242027.5],
      "WindowCenter": [7056.0, 7047.0, 2502.0, 1405.0, 2525.0, 1466.0, 2515.0, 1407.0, 2468.0, 1437.0, 2476.0, 1412.0, 2560.0, 1454.0, 2479.0, 1439.0, 2454.0, 6971.0, 1471.0, 2508.0, 1410.0, 2478.0, 1413.0, 2455.0, 1451.0, 2484.0, 1439.0, 2518.0, 1444.0, 2519.0, 1444.0, 2499.0, 1420.0, 7017.0, 2511.0, 1404.0, 2435.0, 1437.0, 2483.0, 1458.0, 2468.0, 1379.0, 2485.0, 1485.0, 2470.0, 1414.0, 2420.0, 1466.0, 2484.0, 6978.0, 1454.0, 2506.0, 1439.0, 2480.0, 1442.0, 2479.0, 1455.0, 2519.0, 1416.0, 2480.0, 1412.0, 2474.0, 1425.0, 2530.0, 1417.0, 6901.0, 2483.0, 1461.0, 2507.0, 1436.0, 2451.0, 1408.0, 2478.0, 1407.0, 2448.0, 1428.0, 2509.0, 1438.0, 2522.0, 1433.0, 2458.0, 6962.0, 1476.0, 2451.0, 1398.0, 2543.0, 1438.0, 2449.0, 1391.0, 2476.0, 1456.0, 2454.0, 1435.0, 2549.0, 1459.0, 2477.0, 1451.0, 2498.0, 1430.0],
      "WindowWidth": [15424.0, 15403.0, 6003.0, 3693.0, 6081.0, 3800.0, 6047.0, 3704.0, 5959.0, 3743.0, 5957.0, 3720.0, 6130.0, 3810.0, 5986.0, 3778.0, 5933.0, 15199.0, 3819.0, 6035.0, 3710.0, 5973.0, 3728.0, 5933.0, 3798.0, 5971.0, 3749.0, 6039.0, 3798.0, 6049.0, 3774.0, 6026.0, 3725.0, 15273.0, 6012.0, 3690.0, 5885.0, 3742.0, 5972.0, 3823.0, 5953.0, 3644.0, 5975.0, 3847.0, 5960.0, 3701.0, 5864.0, 3836.0, 5990.0, 15212.0, 3780.0, 6023.0, 3773.0, 5955.0, 3794.0, 5972.0, 3810.0, 6044.0, 3714.0, 5983.0, 3698.0, 5959.0, 3714.0, 6073.0, 3742.0, 15086.0, 5961.0, 3812.0, 6030.0, 3765.0, 5916.0, 3705.0, 5983.0, 3680.0, 5911.0, 3757.0, 6029.0, 3775.0, 6057.0, 3756.0, 5929.0, 15185.0, 3816.0, 5923.0, 3666.0, 6089.0, 3776.0, 5915.0, 3670.0, 5957.0, 3786.0, 5937.0, 3764.0, 6118.0, 3803.0, 5974.0, 3803.0, 6003.0, 3734.0]
    },
    "slices": {}
  }
}