{
  "AcquisitionMatrixPE": 110,
  "AcquisitionNumber": 1,
  "AcquisitionTime": "11:02:50.092500",
  "BandwidthPerPixelPhaseEncode": 12.987,
  "BaseResolution": 110,
  "BodyPartExamined": "BRAIN",
  "CoilCombinationMethod": "Sum of Squares",
  "ConsistencyInfo": "N4_VE11C_LATEST_20160120",
  "ConversionSoftware": "dcm2niix",
  "ConversionSoftwareVersion": "v1.0.20211006",
  "DerivedVendorReportedEchoSpacing": 0.000700001,
  "DeviceSerialNumber": "167006",
  "DiffusionScheme": "Monopolar",
  "DwellTime": 2.7e-06,
  "EchoTime": 0.0816,
  "EchoTrainLength": 83,
  "EffectiveEchoSpacing": 0.000700001,
  "FlipAngle": 78,
  "HeudiconvVersion": "0.5.3.post569+g418601f",
  "ImageComments": "Unaliased MB3/PE3/LB SENSE1",
  "ImageOrientationPatientDICOM": [0.99612, 0.0855517, -0.020619, -0.0871492, 0.926487, -0.366097],
  "ImageOrientationText": "Tra>Cor(-21.5)>Sag(0.7)",
  "ImageType": [
    "ORIGINAL",
    "PRIMARY",
    "DIFFUSION",
    "NONE",
    "MB",
    "ND",
    "MOSAIC"
],
  "ImagingFrequency": 123.259,
  "InPlanePhaseEncodingDirectionDICOM": "COL",
  "InstitutionAddress": "Chemin Queen-Mary 4565,Montreal,District,CA,H3W 1W5",
  "InstitutionName": "IUGM",
  "InstitutionalDepartmentName": "Department",
  "MRAcquisitionType": "2D",
  "MagneticFieldStrength": 3,
  "Manufacturer": "Siemens",
  "ManufacturersModelName": "Prisma_fit",
  "MatrixCoilMode": "SENSE",
  "Modality": "MR",
  "MultibandAccelerationFactor": 3,
  "PartialFourier": 0.75,
  "PatientPosition": "HFS",
  "PercentPhaseFOV": 100,
  "PercentSampling": 100,
  "PhaseEncodingDirection": "j-",
  "PhaseEncodingSteps": 83,
  "PhaseResolution": 1,
  "PixelBandwidth": 1685,
  "ProcedureStepDescription": "anat^generic",
  "ProtocolName": "dMRI_dir98_AP_test_cmrr",
  "PulseSequenceDetails": "%CustomerSeq%\\cmrr_mbep2d_diff",
  "ReceiveCoilActiveElements": "HC1-6",
  "ReceiveCoilName": "HeadNeck_64",
  "ReconMatrixPE": 110,
  "RepetitionTime": 2.334,
  "SAR": 0.131082,
  "ScanOptions": "PFP\\EXT",
  "ScanningSequence": "EP",
  "SequenceName": "ep_b5#1",
  "SequenceVariant": "SK\\SS",
  "SeriesDescription": "dMRI_dir98_AP_test_cmrr",
  "SeriesNumber": 7,
  "ShimSetting": [628, -7193, -8867, 589, 53, 21, 17, 2],
  "SliceThickness": 2,
  "SliceTiming": [0, 1.2175, 0.12, 1.3375, 0.2425, 1.46, 0.365, 1.5825, 0.485, 1.705, 0.6075, 1.825, 0.73, 1.9475, 0.8525, 2.07, 0.9725, 2.19, 1.095, 0, 1.2175, 0.12, 1.3375, 0.2425, 1.46, 0.365, 1.5825, 0.485, 1.705, 0.6075, 1.825, 0.73, 1.9475, 0.8525, 2.07, 0.9725, 2.19, 1.095, 0, 1.2175, 0.12, 1.3375, 0.2425, 1.46, 0.365, 1.5825, 0.485, 1.705, 0.6075, 1.825, 0.73, 1.9475, 0.8525, 2.07, 0.9725, 2.19, 1.095],
  "SoftwareVersions": "syngo MR E11",
  "SpacingBetweenSlices": 2,
  "StationName": "MRC35049",
  "TotalReadoutTime": 0.0763001,
  "TxRefAmp": 244.826,
  "WipMemBlock": "1d1ebb86-1f73-45fc-a8cb-f659da316ac3||Sequence: R016 ve11c/master r/e634e98; Dec 19 2017 11:11:25 by eja",
  "dcmmeta_affine": [
    [-1.9922406673431396, -0.1742984801530838, 0.024433989077806473, 120.29232025146484],
    [-0.17110347747802734, 1.8529735803604126, -0.7329477071762085, -62.70759201049805],
    [-0.041238073259592056, 0.7321945428848267, 1.8606961965560913, -69.60879516601562],
    [0.0, 0.0, 0.0, 1.0]
],
  "dcmmeta_reorient_transform": [
    [0.0, -1.0, 0.0, 109.0],
    [1.0, 0.0, 0.0, 0.0],
    [0.0, 0.0, 1.0, 0.0],
    [0.0, 0.0, 0.0, 1.0]
],
  "dcmmeta_shape": [110, 110, 57, 99],
  "dcmmeta_slice_dim": 2,
  "dcmmeta_version": 0.6,
  "global": {
    "const": {
      "AcquisitionMatrix": [110, 0, 0, 110],
      "AngioFlag": "N",
      "BitsAllocated": 16,
      "BitsStored": 16,
      "BodyPartExamined": "BRAIN",
      "CardiacNumberOfImages": 1,
      "Columns": 880,
      "EchoNumbers": 1,
      "EchoTime": 81.6,
      "EchoTrainLength": 83,
      "FlipAngle": 78.0,
      "HighBit": 15,
      "ImageOrientationPatient": [0.99612035153978, 0.08555174226735, -0.0206190359448, -0.0871492413853, 0.92648680123644, -0.3660972778657],
      "ImagePositionPatient": [-801.20154157183, -918.53620763575, 307.9719734323],
      "ImageType": [
        "ORIGINAL",
        "PRIMARY",
        "DIFFUSION",
        "NONE",
        "MB",
        "ND",
        "MOSAIC"
],
      "ImagedNucleus": "1H",
      "ImagingFrequency": 123.258926,
      "InPlanePhaseEncodingDirection": "COL",
      "MRAcquisitionType": "2D",
      "MagneticFieldStrength": 3.0,
      "Manufacturer": "SIEMENS",
      "ManufacturerModelName": "Prisma_fit",
      "Modality": "MR",
      "NominalInterval": 0,
      "NumberOfAverages": 1.0,
      "NumberOfPhaseEncodingSteps": 83,
      "PercentPhaseFieldOfView": 100.0,
      "PercentSampling": 100.0,
      "PerformedProcedureStepStartTime": "102232.693000",
      "PhotometricInterpretation": "MONOCHROME2",
      "PixelBandwidth": 1685.0,
      "PixelRepresentation": 0,
      "PixelSpacing": [2.0, 2.0],
      "ProtocolName": "dMRI_dir98_AP_test_cmrr",
      "RepetitionTime": 2334.0,
      "Rows": 880,
      "SAR": 0.13108228585637,
      "SamplesPerPixel": 1,
      "ScanOptions": [
        "PFP",
        "EXT"
],
      "ScanningSequence": "EP",
      "SequenceVariant": [
        "SK",
        "SS"
],
      "SeriesDescription": "dMRI_dir98_AP_test_cmrr",
      "SeriesNumber": 7,
      "SeriesTime": "110351.171000",
      "SliceLocation": -40.310105896626,
      "SliceThickness": 2.0,
      "SmallestImagePixelValue": 0,
      "SoftwareVersions": "syngo MR E11",
      "SpacingBetweenSlices": 1.9999999211157,
      "SpecificCharacterSet": "ISO_IR 100",
      "StudyID": "1",
      "StudyTime": "102232.618000",
      "TransmitCoilName": "Body",
      "VariableFlipAngleFlag": "N",
      "WindowCenterWidthExplanation": "Algo1",
      "dBdt": 0.0},
    "slices": {}
  },
  "time": {
    "samples": {
      "AcquisitionNumber": [1, 2, 3, 4, 5, 6, 7, 8, 9, 10, 11, 12, 13, 14, 15, 16, 17, 18, 19, 20, 21, 22, 23, 24, 25, 26, 27, 28, 29, 30, 31, 32, 33, 34, 35, 36, 37, 38, 39, 40, 41, 42, 43, 44, 45, 46, 47, 48, 49, 50, 51, 52, 53, 54, 55, 56, 57, 58, 59, 60, 61, 62, 63, 64, 65, 66, 67, 68, 69, 70, 71, 72, 73, 74, 75, 76, 77, 78, 79, 80, 81, 82, 83, 84, 85, 86, 87, 88, 89, 90, 91, 92, 93, 94, 95, 96, 97, 98, 99],
      "AcquisitionTime": ["110250.092500", "110252.425000", "110254.760000", "110257.092500", "110259.427500", "110301.762500", "110304.095000", "110306.430000", "110308.762500", "110311.097500", "110313.432500", "110315.765000", "110318.100000", "110320.432500", "110322.767500", "110325.102500", "110327.435000", "110329.770000", "110332.102500", "110334.437500", "110336.772500", "110339.105000", "110341.440000", "110343.772500", "110346.107500", "110348.442500", "110350.775000", "110353.110000", "110355.442500", "110357.777500", "110400.112500", "110402.445000", "110404.780000", "110407.112500", "110409.447500", "110411.782500", "110414.115000", "110416.450000", "110418.782500", "110421.117500", "110423.452500", "110425.785000", "110428.120000", "110430.452500", "110432.787500", "110435.122500", "110437.455000", "110439.790000", "110442.122500", "110444.457500", "110446.792500", "110449.125000", "110451.460000", "110453.792500", "110456.127500", "110458.462500", "110500.795000", "110503.130000", "110505.462500", "110507.797500", "110510.132500", "110512.465000", "110514.800000", "110517.132500", "110519.467500", "110521.802500", "110524.135000", "110526.470000", "110528.802500", "110531.137500", "110533.472500", "110535.805000", "110538.140000", "110540.472500", "110542.807500", "110545.142500", "110547.475000", "110549.810000", "110552.142500", "110554.477500", "110556.812500", "110559.145000", "110601.480000", "110603.812500", "110606.147500", "110608.482500", "110610.815000", "110613.150000", "110615.482500", "110617.817500", "110620.152500", "110622.485000", "110624.820000", "110627.152500", "110629.487500", "110631.822500", "110634.155000", "110636.490000", "110638.822500"],
      "ContentTime": ["110351.174000", "110351.178000", "110351.181000", "110351.184000", "110351.187000", "110351.190000", "110351.193000", "110351.196000", "110351.199000", "110351.203000", "110351.206000", "110351.209000", "110351.212000", "110351.215000", "110351.218000", "110351.221000", "110351.224000", "110351.228000", "110351.231000", "110351.234000", "110351.237000", "110351.240000", "110351.243000", "110351.246000", "110351.249000", "110451.132000", "110451.136000", "110451.139000", "110451.142000", "110451.145000", "110451.148000", "110451.164000", "110451.167000", "110451.170000", "110451.174000", "110451.177000", "110451.180000", "110451.183000", "110451.186000", "110451.189000", "110451.192000", "110451.195000", "110451.198000", "110451.201000", "110451.204000", "110451.208000", "110451.211000", "110451.214000", "110451.217000", "110451.220000", "110451.223000", "110551.131000", "110551.134000", "110551.138000", "110551.141000", "110551.144000", "110551.147000", "110551.150000", "110551.153000", "110551.156000", "110551.159000", "110551.162000", "110551.165000", "110551.168000", "110551.172000", "110551.175000", "110551.178000", "110551.181000", "110551.184000", "110551.187000", "110551.190000", "110551.193000", "110551.196000", "110551.199000", "110551.202000", "110551.205000", "110551.209000", "110644.108000", "110644.111000", "110644.114000", "110644.117000", "110644.121000", "110644.124000", "110644.127000", "110644.130000", "110644.133000", "110644.136000", "110644.140000", "110644.143000", "110644.146000", "110644.149000", "110644.152000", "110644.155000", "110644.158000", "110644.161000", "110644.165000", "110644.168000", "110644.171000", "110644.174000"],
      "InstanceCreationTime": ["110351.174000", "110351.178000", "110351.181000", "110351.184000", "110351.187000", "110351.190000", "110351.193000", "110351.196000", "110351.199000", "110351.203000", "110351.206000", "110351.209000", "110351.212000", "110351.215000", "110351.218000", "110351.221000", "110351.224000", "110351.228000", "110351.231000", "110351.234000", "110351.237000", "110351.240000", "110351.243000", "110351.246000", "110351.249000", "110451.132000", "110451.136000", "110451.139000", "110451.142000", "110451.145000", "110451.148000", "110451.164000", "110451.167000", "110451.170000", "110451.174000", "110451.177000", "110451.180000", "110451.183000", "110451.186000", "110451.189000", "110451.192000", "110451.195000", "110451.198000", "110451.201000", "110451.204000", "110451.208000", "110451.211000", "110451.214000", "110451.217000", "110451.220000", "110451.223000", "110551.131000", "110551.134000", "110551.138000", "110551.141000", "110551.144000", "110551.147000", "110551.150000", "110551.153000", "110551.156000", "110551.159000", "110551.162000", "110551.165000", "110551.168000", "110551.172000", "110551.175000", "110551.178000", "110551.181000", "110551.184000", "110551.187000", "110551.190000", "110551.193000", "110551.196000", "110551.199000", "110551.202000", "110551.205000", "110551.209000", "110644.108000", "110644.111000", "110644.114000", "110644.117000", "110644.121000", "110644.124000", "110644.127000", "110644.130000", "110644.133000", "110644.136000", "110644.140000", "110644.143000", "110644.146000", "110644.149000", "110644.152000", "110644.155000", "110644.158000", "110644.161000", "110644.165000", "110644.168000", "110644.171000", "110644.174000"],
      "InstanceNumber": [1, 2, 3, 4, 5, 6, 7, 8, 9, 10, 11, 12, 13, 14, 15, 16, 17, 18, 19, 20, 21, 22, 23, 24, 25, 26, 27, 28, 29, 30, 31, 32, 33, 34, 35, 36, 37, 38, 39, 40, 41, 42, 43, 44, 45, 46, 47, 48, 49, 50, 51, 52, 53, 54, 55, 56, 57, 58, 59, 60, 61, 62, 63, 64, 65, 66, 67, 68, 69, 70, 71, 72, 73, 74, 75, 76, 77, 78, 79, 80, 81, 82, 83, 84, 85, 86, 87, 88, 89, 90, 91, 92, 93, 94, 95, 96, 97, 98, 99],
      "LargestImagePixelValue": [50467, 49219, 11373, 4887, 10905, 4574, 10474, 6511, 12058, 5880, 11895, 4485, 10440, 5247, 10472, 5636, 11741, 42318, 5767, 10546, 5171, 10044, 5348, 12087, 4067, 11109, 5549, 10434, 5115, 9832, 6204, 10692, 4821, 43559, 10713, 5856, 10927, 5038, 10084, 4962, 10414, 5073, 11103, 4514, 10880, 5463, 11379, 5240, 11448, 49701, 5753, 8908, 4681, 11265, 6240, 10495, 4878, 10491, 5498, 10682, 5886, 10838, 6520, 9978, 5434, 46772, 9943, 5955, 10365, 5304, 10417, 5647, 9933, 5371, 11774, 5388, 11390, 4041, 9433, 5647, 10606, 44661, 5074, 11061, 5496, 10439, 6487, 11289, 4633, 10984, 5181, 11915, 4263, 10042, 6553, 11257, 6058, 11944, 4329],
      "SequenceName": [
 "ep_b5#1",
 "ep_b5#1",
 "ep_b1490#2",
 "ep_b2990#3",
 "ep_b1495#4",
 "ep_b3005#5",
 "ep_b1500#6",
 "ep_b2985#7",
 "ep_b1495#8",
 "ep_b3005#9",
 "ep_b1490#10",
 "ep_b2995#11",
 "ep_b1495#12",
 "ep_b2990#13",
 "ep_b1500#14",
 "ep_b2985#15",
 "ep_b1500#16",
 "ep_b5#17",
 "ep_b3005#18",
 "ep_b1490#19",
 "ep_b2995#20",
 "ep_b1495#21",
 "ep_b3000#22",
 "ep_b1495#23",
 "ep_b3000#24",
 "ep_b1490#25",
 "ep_b2985#26",
 "ep_b1505#27",
 "ep_b2990#28",
 "ep_b1495#29",
 "ep_b3000#30",
 "ep_b1490#31",
 "ep_b3000#32",
 "ep_b5#33",
 "ep_b1505#34",
 "ep_b3000#35",
 "ep_b1490#36",
 "ep_b2985#37",
 "ep_b1495#38",
 "ep_b2995#39",
 "ep_b1500#40",
 "ep_b2995#41",
 "ep_b1500#42",
 "ep_b2990#43",
 "ep_b1495#44",
 "ep_b3000#45",
 "ep_b1495#46",
 "ep_b3000#47",
 "ep_b1490#48",
 "ep_b5#49",
 "ep_b3000#50",
 "ep_b1495#51",
 "ep_b2995#52",
 "ep_b1505#53",
 "ep_b2995#54",
 "ep_b1495#55",
 "ep_b2990#56",
 "ep_b1490#57",
 "ep_b2995#58",
 "ep_b1500#59",
 "ep_b3000#60",
 "ep_b1500#61",
 "ep_b2985#62",
 "ep_b1500#63",
 "ep_b2990#64",
 "ep_b5#65",
 "ep_b1505#66",
 "ep_b3005#67",
 "ep_b1495#68",
 "ep_b3000#69",
 "ep_b1505#70",
 "ep_b3005#71",
 "ep_b1500#72",
 "ep_b3005#73",
 "ep_b1495#74",
 "ep_b2995#75",
 "ep_b1495#76",
 "ep_b2995#77",
 "ep_b1500#78",
 "ep_b3000#79",
 "ep_b1490#80",
 "ep_b5#81",
 "ep_b2990#82",
 "ep_b1500#83",
 "ep_b2985#84",
 "ep_b1495#85",
 "ep_b2995#86",
 "ep_b1495#87",
 "ep_b2990#88",
 "ep_b1490#89",
 "ep_b2985#90",
 "ep_b1500#91",
 "ep_b3000#92",
 "ep_b1495#93",
 "ep_b3005#94",
 "ep_b1495#95",
 "ep_b2990#96",
 "ep_b1500#97",
 "ep_b3000#98"
],
      "TriggerTime": [13295.0, 15630.0, 17965.0, 20297.5, 22632.5, 24965.0, 27300.0, 29635.0, 31967.5, 34302.5, 36635.0, 38970.0, 41305.0, 43637.5, 45972.5, 48305.0, 50640.0, 52975.0, 55307.5, 57642.5, 59975.0, 62310.0, 64645.0, 66977.5, 69312.5, 71645.0, 73980.0, 76315.0, 78647.5, 80982.5, 83315.0, 85650.0, 87985.0, 90317.5, 92652.5, 94985.0, 97320.0, 99655.0, 101987.5, 104322.5, 106655.0, 108990.0, 111325.0, 113657.5, 115992.5, 118325.0, 120660.0, 122995.0, 125327.5, 127662.5, 129995.0, 132330.0, 134665.0, 136997.5, 139332.5, 141665.0, 144000.0, 146335.0, 148667.5, 151002.5, 153335.0, 155670.0, 158005.0, 160337.5, 162672.5, 165005.0, 167340.0, 169675.0, 172007.5, 174342.5, 176675.0, 179010.0, 181345.0, 183677.5, 186012.5, 188345.0, 190680.0, 193015.0, 195347.5, 197682.5, 200015.0, 202350.0, 204685.0, 207017.5, 209352.5, 211685.0, 214020.0, 216355.0, 218687.5, 221022.5, 223355.0, 225690.0, 228025.0, 230357.5, 232692.5, 235025.0, 237360.0, 239695.0, 242027.5],
      "WindowCenter": [7163.0, 7145.0, 2673.0, 1548.0, 2719.0, 1553.0, 2740.0, 1559.0, 2676.0, 1552.0, 2669.0, 1539.0, 2744.0, 1558.0, 2669.0, 1560.0, 2672.0, 6999.0, 1582.0, 2709.0, 1560.0, 2671.0, 1547.0, 2659.0, 1546.0, 2679.0, 1557.0, 2701.0, 1542.0, 2705.0, 1573.0, 2667.0, 1550.0, 7059.0, 2693.0, 1553.0, 2640.0, 1543.0, 2668.0, 1607.0, 2692.0, 1516.0, 2675.0, 1555.0, 2650.0, 1568.0, 2645.0, 1547.0, 2690.0, 7110.0, 1582.0, 2706.0, 1557.0, 2679.0, 1589.0, 2682.0, 1594.0, 2710.0, 1544.0, 2649.0, 1552.0, 2664.0, 1581.0, 2726.0, 1579.0, 7044.0, 2670.0, 1604.0, 2692.0, 1602.0, 2665.0, 1556.0, 2676.0, 1556.0, 2657.0, 1549.0, 2694.0, 1542.0, 2702.0, 1553.0, 2688.0, 7093.0, 1575.0, 2646.0, 1553.0, 2732.0, 1576.0, 2638.0, 1523.0, 2667.0, 1544.0, 2677.0, 1534.0, 2740.0, 1588.0, 2713.0, 1559.0, 2686.0, 1550.0],
      "WindowWidth": [15456.0, 15429.0, 6365.0, 4016.0, 6464.0, 4022.0, 6490.0, 4035.0, 6374.0, 4006.0, 6359.0, 4002.0, 6503.0, 4058.0, 6361.0, 4039.0, 6363.0, 15139.0, 4072.0, 6446.0, 4035.0, 6356.0, 4020.0, 6338.0, 4026.0, 6381.0, 4019.0, 6412.0, 4025.0, 6435.0, 4064.0, 6367.0, 4014.0, 15252.0, 6402.0, 4018.0, 6312.0, 3992.0, 6352.0, 4148.0, 6392.0, 3948.0, 6372.0, 4036.0, 6335.0, 4038.0, 6308.0, 4044.0, 6400.0, 15333.0, 4068.0, 6430.0, 4056.0, 6380.0, 4106.0, 6382.0, 4109.0, 6443.0, 4002.0, 6329.0, 4007.0, 6357.0, 4061.0, 6469.0, 4087.0, 15208.0, 6362.0, 4129.0, 6413.0, 4121.0, 6342.0, 4021.0, 6379.0, 4012.0, 6330.0, 4032.0, 6414.0, 4014.0, 6427.0, 4021.0, 6390.0, 15314.0, 4062.0, 6316.0, 4007.0, 6476.0, 4081.0, 6304.0, 3966.0, 6359.0, 3999.0, 6374.0, 4010.0, 6498.0, 4098.0, 6440.0, 4043.0, 6395.0, 4011.0]
    },
    "slices": {}
  }
}