{
  "AcquisitionMatrixPE": 110,
  "AcquisitionNumber": 1,
  "AcquisitionTime": "14:05:55.180000",
  "BandwidthPerPixelPhaseEncode": 12.987,
  "BaseResolution": 110,
  "BodyPartExamined": "BRAIN",
  "CoilCombinationMethod": "Sum of Squares",
  "ConsistencyInfo": "N4_VE11C_LATEST_20160120",
  "ConversionSoftware": "dcm2niix",
  "ConversionSoftwareVersion": "v1.0.20211006",
  "DerivedVendorReportedEchoSpacing": 0.000700001,
  "DeviceSerialNumber": "167006",
  "DiffusionScheme": "Monopolar",
  "DwellTime": 2.7e-06,
  "EchoTime": 0.0816,
  "EchoTrainLength": 83,
  "EffectiveEchoSpacing": 0.000700001,
  "FlipAngle": 78,
  "HeudiconvVersion": "0.5.3.post569+g418601f",
  "ImageComments": "Unaliased MB3/PE3/LB SENSE1",
  "ImageOrientationPatientDICOM": [1, 0, 0, 0, 0.838671, -0.544639],
  "ImageOrientationText": "Tra>Cor(-33.0)",
  "ImageType": [
    "ORIGINAL",
    "PRIMARY",
    "DIFFUSION",
    "NONE",
    "MB",
    "ND",
    "MOSAIC"
],
  "ImagingFrequency": 123.259,
  "InPlanePhaseEncodingDirectionDICOM": "COL",
  "InstitutionAddress": "Chemin Queen-Mary 4565,Montreal,District,CA,H3W 1W5",
  "InstitutionName": "IUGM",
  "InstitutionalDepartmentName": "Department",
  "MRAcquisitionType": "2D",
  "MagneticFieldStrength": 3,
  "Manufacturer": "Siemens",
  "ManufacturersModelName": "Prisma_fit",
  "MatrixCoilMode": "SENSE",
  "Modality": "MR",
  "MultibandAccelerationFactor": 3,
  "PartialFourier": 0.75,
  "PatientPosition": "HFS",
  "PercentPhaseFOV": 100,
  "PercentSampling": 100,
  "PhaseEncodingDirection": "j",
  "PhaseEncodingSteps": 83,
  "PhaseResolution": 1,
  "PixelBandwidth": 1685,
  "ProcedureStepDescription": "anat^generic",
  "ProtocolName": "dMRI_dir98_PA_test_cmrr",
  "PulseSequenceDetails": "%CustomerSeq%\\cmrr_mbep2d_diff",
  "ReceiveCoilActiveElements": "HC1-7;NC1",
  "ReceiveCoilName": "HeadNeck_64",
  "ReconMatrixPE": 110,
  "RepetitionTime": 2.334,
  "SAR": 0.131715,
  "ScanOptions": "PFP\\EXT",
  "ScanningSequence": "EP",
  "SequenceName": "ep_b5#1",
  "SequenceVariant": "SK\\SS",
  "SeriesDescription": "dMRI_dir98_PA_test_cmrr",
  "SeriesNumber": 11,
  "ShimSetting": [608, -7202, -8869, 413, -68, -315, 15, -31],
  "SliceThickness": 2,
  "SliceTiming": [0, 1.2175, 0.12, 1.3375, 0.2425, 1.46, 0.365, 1.5825, 0.485, 1.705, 0.6075, 1.825, 0.73, 1.9475, 0.8525, 2.07, 0.9725, 2.19, 1.095, 0, 1.2175, 0.12, 1.3375, 0.2425, 1.46, 0.365, 1.5825, 0.485, 1.705, 0.6075, 1.825, 0.73, 1.9475, 0.8525, 2.07, 0.9725, 2.19, 1.095, 0, 1.2175, 0.12, 1.3375, 0.2425, 1.46, 0.365, 1.5825, 0.485, 1.705, 0.6075, 1.825, 0.73, 1.9475, 0.8525, 2.07, 0.9725, 2.19, 1.095],
  "SoftwareVersions": "syngo MR E11",
  "SpacingBetweenSlices": 2,
  "StationName": "MRC35049",
  "TotalReadoutTime": 0.0763001,
  "TxRefAmp": 248.529,
  "WipMemBlock": "3197bde9-5a5c-4b9c-90d0-a936241b2008||Sequence: R016 ve11c/master r/e634e98; Dec 19 2017 11:11:25 by eja",
  "dcmmeta_affine": [
    [-2.0, 0.0, 0.0, 109.49686431884766],
    [0.0, 1.677341103553772, -1.0892781019210815, -62.9863395690918],
    [0.0, 1.0892781019210815, 1.677341103553772, -110.47435760498047],
    [0.0, 0.0, 0.0, 1.0]
],
  "dcmmeta_reorient_transform": [
    [0.0, -1.0, 0.0, 109.0],
    [1.0, 0.0, 0.0, 0.0],
    [0.0, 0.0, 1.0, 0.0],
    [0.0, 0.0, 0.0, 1.0]
],
  "dcmmeta_shape": [110, 110, 57, 99],
  "dcmmeta_slice_dim": 2,
  "dcmmeta_version": 0.6,
  "global": {
    "const": {
      "AcquisitionMatrix": [110, 0, 0, 110],
      "AngioFlag": "N",
      "BitsAllocated": 16,
      "BitsStored": 16,
      "BodyPartExamined": "BRAIN",
      "CardiacNumberOfImages": 1,
      "Columns": 880,
      "EchoNumbers": 1,
      "EchoTime": 81.6,
      "EchoTrainLength": 83,
      "FlipAngle": 78.0,
      "HighBit": 15,
      "ImageOrientationPatient": [1.0, 0.0, 0.0, 0.0, 0.83867056370374, -0.5446390415466],
      "ImagePositionPatient": [-879.49686384201, -765.62017822787, 427.62901717507],
      "ImageType": [
        "ORIGINAL",
        "PRIMARY",
        "DIFFUSION",
        "NONE",
        "MB",
        "ND",
        "MOSAIC"
],
      "ImagedNucleus": "1H",
      "ImagingFrequency": 123.258988,
      "InPlanePhaseEncodingDirection": "COL",
      "MRAcquisitionType": "2D",
      "MagneticFieldStrength": 3.0,
      "Manufacturer": "SIEMENS",
      "ManufacturerModelName": "Prisma_fit",
      "Modality": "MR",
      "NominalInterval": 0,
      "NumberOfAverages": 1.0,
      "NumberOfPhaseEncodingSteps": 83,
      "PercentPhaseFieldOfView": 100.0,
      "PercentSampling": 100.0,
      "PerformedProcedureStepStartTime": "133733.263000",
      "PhotometricInterpretation": "MONOCHROME2",
      "PixelBandwidth": 1685.0,
      "PixelRepresentation": 0,
      "PixelSpacing": [2.0, 2.0],
      "ProtocolName": "dMRI_dir98_PA_test_cmrr",
      "RepetitionTime": 2334.0,
      "Rows": 880,
      "SAR": 0.13171474473983,
      "SamplesPerPixel": 1,
      "ScanOptions": [
        "PFP",
        "EXT"
],
      "ScanningSequence": "EP",
      "SequenceVariant": [
        "SK",
        "SS"
],
      "SeriesDescription": "dMRI_dir98_PA_test_cmrr",
      "SeriesNumber": 11,
      "SeriesTime": "140655.342000",
      "SliceLocation": -58.346771168514,
      "SliceThickness": 2.0,
      "SmallestImagePixelValue": 0,
      "SoftwareVersions": "syngo MR E11",
      "SpacingBetweenSlices": 1.999999976706,
      "SpecificCharacterSet": "ISO_IR 100",
      "StudyID": "1",
      "StudyTime": "133733.196000",
      "TransmitCoilName": "Body",
      "VariableFlipAngleFlag": "N",
      "WindowCenterWidthExplanation": "Algo1",
      "dBdt": 0.0},
    "slices": {}
  },
  "time": {
    "samples": {
      "AcquisitionNumber": [1, 2, 3, 4, 5, 6, 7, 8, 9, 10, 11, 12, 13, 14, 15, 16, 17, 18, 19, 20, 21, 22, 23, 24, 25, 26, 27, 28, 29, 30, 31, 32, 33, 34, 35, 36, 37, 38, 39, 40, 41, 42, 43, 44, 45, 46, 47, 48, 49, 50, 51, 52, 53, 54, 55, 56, 57, 58, 59, 60, 61, 62, 63, 64, 65, 66, 67, 68, 69, 70, 71, 72, 73, 74, 75, 76, 77, 78, 79, 80, 81, 82, 83, 84, 85, 86, 87, 88, 89, 90, 91, 92, 93, 94, 95, 96, 97, 98, 99],
      "AcquisitionTime": ["140555.180000", "140557.512500", "140559.847500", "140602.180000", "140604.515000", "140606.850000", "140609.182500", "140611.517500", "140613.850000", "140616.185000", "140618.520000", "140620.852500", "140623.187500", "140625.520000", "140627.855000", "140630.190000", "140632.522500", "140634.857500", "140637.190000", "140639.525000", "140641.860000", "140644.192500", "140646.527500", "140648.860000", "140651.195000", "140653.530000", "140655.862500", "140658.197500", "140700.530000", "140702.865000", "140705.200000", "140707.532500", "140709.867500", "140712.200000", "140714.535000", "140716.870000", "140719.202500", "140721.537500", "140723.870000", "140726.205000", "140728.540000", "140730.872500", "140733.207500", "140735.540000", "140737.875000", "140740.210000", "140742.542500", "140744.877500", "140747.210000", "140749.545000", "140751.880000", "140754.212500", "140756.547500", "140758.880000", "140801.215000", "140803.550000", "140805.882500", "140808.217500", "140810.550000", "140812.885000", "140815.220000", "140817.552500", "140819.887500", "140822.220000", "140824.555000", "140826.890000", "140829.222500", "140831.557500", "140833.890000", "140836.225000", "140838.560000", "140840.892500", "140843.227500", "140845.560000", "140847.895000", "140850.230000", "140852.562500", "140854.897500", "140857.230000", "140859.565000", "140901.900000", "140904.232500", "140906.567500", "140908.900000", "140911.235000", "140913.570000", "140915.902500", "140918.237500", "140920.570000", "140922.905000", "140925.240000", "140927.572500", "140929.907500", "140932.240000", "140934.575000", "140936.910000", "140939.242500", "140941.577500", "140943.910000"],
      "ContentTime": ["140655.345000", "140655.348000", "140655.365000", "140655.369000", "140655.372000", "140655.375000", "140655.378000", "140655.381000", "140655.384000", "140655.393000", "140655.396000", "140655.399000", "140655.402000", "140655.412000", "140655.415000", "140655.419000", "140655.422000", "140655.425000", "140655.428000", "140655.431000", "140655.434000", "140655.437000", "140655.441000", "140655.444000", "140655.447000", "140755.309000", "140755.312000", "140755.315000", "140755.319000", "140755.322000", "140755.325000", "140755.328000", "140755.331000", "140755.335000", "140755.338000", "140755.341000", "140755.344000", "140755.347000", "140755.350000", "140755.353000", "140755.357000", "140755.360000", "140755.363000", "140755.366000", "140755.369000", "140755.373000", "140755.376000", "140755.379000", "140755.382000", "140755.385000", "140755.388000", "140855.308000", "140855.312000", "140855.318000", "140855.321000", "140855.325000", "140855.328000", "140855.331000", "140855.334000", "140855.337000", "140855.340000", "140855.343000", "140855.346000", "140855.350000", "140855.353000", "140855.356000", "140855.359000", "140855.362000", "140855.366000", "140855.369000", "140855.372000", "140855.375000", "140855.378000", "140855.381000", "140855.384000", "140855.388000", "140949.020000", "140949.024000", "140949.027000", "140949.039000", "140949.042000", "140949.045000", "140949.048000", "140949.056000", "140949.059000", "140949.062000", "140949.065000", "140949.069000", "140949.072000", "140949.075000", "140949.078000", "140949.081000", "140949.084000", "140949.088000", "140949.091000", "140949.094000", "140949.097000", "140949.100000", "140949.103000"],
      "InstanceCreationTime": ["140655.345000", "140655.348000", "140655.365000", "140655.369000", "140655.372000", "140655.375000", "140655.378000", "140655.381000", "140655.384000", "140655.393000", "140655.396000", "140655.399000", "140655.402000", "140655.412000", "140655.415000", "140655.419000", "140655.422000", "140655.425000", "140655.428000", "140655.431000", "140655.434000", "140655.437000", "140655.441000", "140655.444000", "140655.447000", "140755.309000", "140755.312000", "140755.315000", "140755.319000", "140755.322000", "140755.325000", "140755.328000", "140755.331000", "140755.335000", "140755.338000", "140755.341000", "140755.344000", "140755.347000", "140755.350000", "140755.353000", "140755.357000", "140755.360000", "140755.363000", "140755.366000", "140755.369000", "140755.373000", "140755.376000", "140755.379000", "140755.382000", "140755.385000", "140755.388000", "140855.308000", "140855.312000", "140855.318000", "140855.321000", "140855.325000", "140855.328000", "140855.331000", "140855.334000", "140855.337000", "140855.340000", "140855.343000", "140855.346000", "140855.350000", "140855.353000", "140855.356000", "140855.359000", "140855.362000", "140855.366000", "140855.369000", "140855.372000", "140855.375000", "140855.378000", "140855.381000", "140855.384000", "140855.388000", "140949.020000", "140949.024000", "140949.027000", "140949.039000", "140949.042000", "140949.045000", "140949.048000", "140949.056000", "140949.059000", "140949.062000", "140949.065000", "140949.069000", "140949.072000", "140949.075000", "140949.078000", "140949.081000", "140949.084000", "140949.088000", "140949.091000", "140949.094000", "140949.097000", "140949.100000", "140949.103000"],
      "InstanceNumber": [1, 2, 3, 4, 5, 6, 7, 8, 9, 10, 11, 12, 13, 14, 15, 16, 17, 18, 19, 20, 21, 22, 23, 24, 25, 26, 27, 28, 29, 30, 31, 32, 33, 34, 35, 36, 37, 38, 39, 40, 41, 42, 43, 44, 45, 46, 47, 48, 49, 50, 51, 52, 53, 54, 55, 56, 57, 58, 59, 60, 61, 62, 63, 64, 65, 66, 67, 68, 69, 70, 71, 72, 73, 74, 75, 76, 77, 78, 79, 80, 81, 82, 83, 84, 85, 86, 87, 88, 89, 90, 91, 92, 93, 94, 95, 96, 97, 98, 99],
      "LargestImagePixelValue": [47359, 60940, 16329, 6528, 14974, 7912, 13760, 8695, 15205, 6850, 15490, 6324, 15035, 6629, 13711, 7476, 15320, 48139, 6971, 15813, 6580, 15651, 7312, 16032, 6113, 14559, 7452, 15182, 6790, 13772, 9102, 14588, 6533, 48926, 14846, 6121, 15057, 8423, 15618, 6571, 14448, 6746, 14807, 6140, 15562, 6312, 15608, 8140, 16131, 48526, 7975, 13879, 6255, 14706, 7982, 14290, 6274, 14711, 6116, 13799, 7739, 13643, 7112, 13825, 6266, 48549, 15099, 6416, 13839, 5728, 15498, 6816, 13739, 8041, 15059, 6234, 15222, 6315, 14079, 8209, 14953, 57804, 6906, 15183, 6849, 14591, 8053, 15086, 6335, 15049, 8744, 15803, 6680, 13899, 8269, 14449, 6876, 14166, 6268],
      "SequenceName": [
 "ep_b5#1",
 "ep_b5#1",
 "ep_b1490#2",
 "ep_b2990#3",
 "ep_b1495#4",
 "ep_b3005#5",
 "ep_b1505#6",
 "ep_b2985#7",
 "ep_b1495#8",
 "ep_b3005#9",
 "ep_b1490#10",
 "ep_b2990#11",
 "ep_b1495#12",
 "ep_b2990#13",
 "ep_b1500#14",
 "ep_b2985#15",
 "ep_b1500#16",
 "ep_b5#17",
 "ep_b3000#18",
 "ep_b1495#19",
 "ep_b3000#20",
 "ep_b1495#21",
 "ep_b2995#22",
 "ep_b1495#23",
 "ep_b3000#24",
 "ep_b1490#25",
 "ep_b2985#26",
 "ep_b1505#27",
 "ep_b2990#28",
 "ep_b1495#29",
 "ep_b3000#30",
 "ep_b1490#31",
 "ep_b3000#32",
 "ep_b5#33",
 "ep_b1505#34",
 "ep_b3000#35",
 "ep_b1490#36",
 "ep_b2985#37",
 "ep_b1495#38",
 "ep_b3000#39",
 "ep_b1500#40",
 "ep_b2995#41",
 "ep_b1505#42",
 "ep_b2990#43",
 "ep_b1495#44",
 "ep_b3000#45",
 "ep_b1495#46",
 "ep_b3000#47",
 "ep_b1490#48",
 "ep_b5#49",
 "ep_b3000#50",
 "ep_b1495#51",
 "ep_b2995#52",
 "ep_b1505#53",
 "ep_b2995#54",
 "ep_b1490#55",
 "ep_b2990#56",
 "ep_b1490#57",
 "ep_b3000#58",
 "ep_b1500#59",
 "ep_b3000#60",
 "ep_b1500#61",
 "ep_b2985#62",
 "ep_b1500#63",
 "ep_b2990#64",
 "ep_b5#65",
 "ep_b1505#66",
 "ep_b3000#67",
 "ep_b1495#68",
 "ep_b3000#69",
 "ep_b1505#70",
 "ep_b3005#71",
 "ep_b1500#72",
 "ep_b3005#73",
 "ep_b1495#74",
 "ep_b2990#75",
 "ep_b1495#76",
 "ep_b2995#77",
 "ep_b1500#78",
 "ep_b3000#79",
 "ep_b1490#80",
 "ep_b5#81",
 "ep_b2990#82",
 "ep_b1500#83",
 "ep_b2985#84",
 "ep_b1495#85",
 "ep_b2995#86",
 "ep_b1495#87",
 "ep_b2990#88",
 "ep_b1490#89",
 "ep_b2985#90",
 "ep_b1495#91",
 "ep_b2995#92",
 "ep_b1495#93",
 "ep_b3005#94",
 "ep_b1500#95",
 "ep_b2990#96",
 "ep_b1500#97",
 "ep_b2995#98"
],
      "TriggerTime": [13295.0, 15630.0, 17965.0, 20297.5, 22632.5, 24965.0, 27300.0, 29635.0, 31967.5, 34302.5, 36635.0, 38970.0, 41305.0, 43637.5, 45972.5, 48305.0, 50640.0, 52975.0, 55307.5, 57642.5, 59975.0, 62310.0, 64645.0, 66977.5, 69312.5, 71645.0, 73980.0, 76315.0, 78647.5, 80982.5, 83315.0, 85650.0, 87985.0, 90317.5, 92652.5, 94985.0, 97320.0, 99655.0, 101987.5, 104322.5, 106655.0, 108990.0, 111325.0, 113657.5, 115992.5, 118325.0, 120660.0, 122995.0, 125327.5, 127662.5, 129995.0, 132330.0, 134665.0, 136997.5, 139332.5, 141665.0, 144000.0, 146335.0, 148667.5, 151002.5, 153335.0, 155670.0, 158005.0, 160337.5, 162672.5, 165005.0, 167340.0, 169675.0, 172007.5, 174342.5, 176675.0, 179010.0, 181345.0, 183677.5, 186012.5, 188345.0, 190680.0, 193015.0, 195347.5, 197682.5, 200015.0, 202350.0, 204685.0, 207017.5, 209352.5, 211685.0, 214020.0, 216355.0, 218687.5, 221022.5, 223355.0, 225690.0, 228025.0, 230357.5, 232692.5, 235025.0, 237360.0, 239695.0, 242027.5],
      "WindowCenter": [7535.0, 7636.0, 2846.0, 1629.0, 2802.0, 1689.0, 2785.0, 1742.0, 2832.0, 1637.0, 2811.0, 1674.0, 2840.0, 1685.0, 2777.0, 1681.0, 2792.0, 7506.0, 1668.0, 2855.0, 1627.0, 2847.0, 1689.0, 2853.0, 1664.0, 2789.0, 1649.0, 2805.0, 1685.0, 2789.0, 1699.0, 2805.0, 1649.0, 7499.0, 2809.0, 1625.0, 2830.0, 1685.0, 2799.0, 1669.0, 2829.0, 1644.0, 2776.0, 1643.0, 2845.0, 1618.0, 2838.0, 1721.0, 2829.0, 7458.0, 1705.0, 2825.0, 1651.0, 2795.0, 1719.0, 2780.0, 1663.0, 2805.0, 1593.0, 2795.0, 1662.0, 2767.0, 1666.0, 2796.0, 1648.0, 7478.0, 2808.0, 1653.0, 2793.0, 1605.0, 2815.0, 1663.0, 2771.0, 1672.0, 2791.0, 1640.0, 2817.0, 1687.0, 2804.0, 1669.0, 2772.0, 7510.0, 1666.0, 2803.0, 1627.0, 2802.0, 1731.0, 2814.0, 1644.0, 2778.0, 1683.0, 2826.0, 1668.0, 2799.0, 1703.0, 2773.0, 1670.0, 2770.0, 1649.0],
      "WindowWidth": [16343.0, 16494.0, 6759.0, 4193.0, 6659.0, 4332.0, 6624.0, 4430.0, 6724.0, 4228.0, 6703.0, 4293.0, 6732.0, 4332.0, 6622.0, 4322.0, 6658.0, 16272.0, 4297.0, 6760.0, 4190.0, 6734.0, 4333.0, 6756.0, 4281.0, 6643.0, 4245.0, 6692.0, 4334.0, 6638.0, 4344.0, 6670.0, 4254.0, 16250.0, 6705.0, 4210.0, 6724.0, 4307.0, 6651.0, 4271.0, 6727.0, 4232.0, 6622.0, 4248.0, 6747.0, 4174.0, 6729.0, 4400.0, 6718.0, 16160.0, 4368.0, 6704.0, 4253.0, 6678.0, 4387.0, 6625.0, 4272.0, 6680.0, 4134.0, 6654.0, 4278.0, 6616.0, 4286.0, 6637.0, 4245.0, 16208.0, 6707.0, 4268.0, 6652.0, 4145.0, 6702.0, 4288.0, 6598.0, 4288.0, 6652.0, 4240.0, 6696.0, 4316.0, 6672.0, 4275.0, 6599.0, 16238.0, 4288.0, 6670.0, 4185.0, 6664.0, 4411.0, 6687.0, 4226.0, 6623.0, 4302.0, 6707.0, 4271.0, 6649.0, 4358.0, 6607.0, 4303.0, 6626.0, 4254.0]
    },
    "slices": {}
  }
}