{
  "AcquisitionMatrixPE": 110,
  "AcquisitionNumber": 1,
  "AcquisitionTime": "15:30:35.840000",
  "BandwidthPerPixelPhaseEncode": 12.987,
  "BaseResolution": 110,
  "BodyPartExamined": "BRAIN",
  "CoilCombinationMethod": "Sum of Squares",
  "ConsistencyInfo": "N4_VE11C_LATEST_20160120",
  "ConversionSoftware": "dcm2niix",
  "ConversionSoftwareVersion": "v1.0.20211006",
  "DerivedVendorReportedEchoSpacing": 0.000700001,
  "DeviceSerialNumber": "167006",
  "DiffusionScheme": "Monopolar",
  "DwellTime": 2.7e-06,
  "EchoTime": 0.0768,
  "EchoTrainLength": 83,
  "EffectiveEchoSpacing": 0.000700001,
  "FlipAngle": 78,
  "HeudiconvVersion": "0.5.3.post569+g418601f",
  "ImageComments": "Unaliased MB3/PE3/LB SENSE1",
  "ImageOrientationPatientDICOM": [1, 0, 0, 0, 0.970296, -0.241922],
  "ImageOrientationText": "Tra>Cor(-14.0)",
  "ImageType": [
    "ORIGINAL",
    "PRIMARY",
    "DIFFUSION",
    "NONE",
    "MB",
    "ND",
    "MOSAIC"
],
  "ImagingFrequency": 123.259,
  "InPlanePhaseEncodingDirectionDICOM": "COL",
  "InstitutionAddress": "Chemin Queen-Mary 4565,Montreal,District,CA,H3W 1W5",
  "InstitutionName": "IUGM",
  "InstitutionalDepartmentName": "Department",
  "MRAcquisitionType": "2D",
  "MagneticFieldStrength": 3,
  "Manufacturer": "Siemens",
  "ManufacturersModelName": "Prisma_fit",
  "MatrixCoilMode": "SENSE",
  "Modality": "MR",
  "MultibandAccelerationFactor": 3,
  "PartialFourier": 0.75,
  "PatientPosition": "HFS",
  "PercentPhaseFOV": 100,
  "PercentSampling": 100,
  "PhaseEncodingDirection": "j-",
  "PhaseEncodingSteps": 83,
  "PhaseResolution": 1,
  "PixelBandwidth": 1685,
  "ProcedureStepDescription": "anat^generic",
  "ProtocolName": "dMRI_dir106_AP_test_cmrr",
  "PulseSequenceDetails": "%CustomerSeq%\\cmrr_mbep2d_diff",
  "ReceiveCoilActiveElements": "HC1-6",
  "ReceiveCoilName": "HeadNeck_64",
  "ReconMatrixPE": 110,
  "RepetitionTime": 2.243,
  "SAR": 0.112858,
  "ScanOptions": "PFP\\EXT",
  "ScanningSequence": "EP",
  "SequenceName": "ep_b5#1",
  "SequenceVariant": "SK\\SS",
  "SeriesDescription": "dMRI_dir106_AP_test_cmrr",
  "SeriesNumber": 7,
  "ShimSetting": [623, -7270, -8827, 596, -25, -285, -9, -27],
  "SliceThickness": 2,
  "SliceTiming": [0, 1.17, 0.1175, 1.2875, 0.235, 1.405, 0.35, 1.52, 0.4675, 1.6375, 0.585, 1.755, 0.7025, 1.8725, 0.82, 1.9875, 0.935, 2.105, 1.0525, 0, 1.17, 0.1175, 1.2875, 0.235, 1.405, 0.35, 1.52, 0.4675, 1.6375, 0.585, 1.755, 0.7025, 1.8725, 0.82, 1.9875, 0.935, 2.105, 1.0525, 0, 1.17, 0.1175, 1.2875, 0.235, 1.405, 0.35, 1.52, 0.4675, 1.6375, 0.585, 1.755, 0.7025, 1.8725, 0.82, 1.9875, 0.935, 2.105, 1.0525],
  "SoftwareVersions": "syngo MR E11",
  "SpacingBetweenSlices": 2,
  "StationName": "MRC35049",
  "TotalReadoutTime": 0.0763001,
  "TxRefAmp": 215.073,
  "WipMemBlock": "eb6e9279-f51e-4f93-9133-515403f1e4ef||Sequence: R016 ve11c/master r/e634e98; Dec 19 2017 11:11:25 by eja",
  "dcmmeta_affine": [
    [-2.0, 0.0, 0.0, 109.49686431884766],
    [0.0, 1.9405914545059204, -0.48384377360343933, -79.77987670898438],
    [0.0, 0.48384377360343933, 1.9405914545059204, -57.37383270263672],
    [0.0, 0.0, 0.0, 1.0]
],
  "dcmmeta_reorient_transform": [
    [0.0, -1.0, 0.0, 109.0],
    [1.0, 0.0, 0.0, 0.0],
    [0.0, 0.0, 1.0, 0.0],
    [0.0, 0.0, 0.0, 1.0]
],
  "dcmmeta_shape": [110, 110, 57, 107],
  "dcmmeta_slice_dim": 2,
  "dcmmeta_version": 0.6,
  "global": {
    "const": {
      "AcquisitionMatrix": [110, 0, 0, 110],
      "AngioFlag": "N",
      "BitsAllocated": 16,
      "BitsStored": 16,
      "BodyPartExamined": "BRAIN",
      "CardiacNumberOfImages": 1,
      "Columns": 880,
      "EchoNumbers": 1,
      "EchoTime": 76.8,
      "EchoTrainLength": 83,
      "FlipAngle": 78.0,
      "HighBit": 15,
      "ImageOrientationPatient": [1.0, 0.0, 0.0, 0.0, 0.97029572723357, -0.241921891759],
      "ImagePositionPatient": [-879.49686384201, -878.87230394564, 181.64499552189],
      "ImageType": [
        "ORIGINAL",
        "PRIMARY",
        "DIFFUSION",
        "NONE",
        "MB",
        "ND",
        "MOSAIC"
],
      "ImagedNucleus": "1H",
      "ImagingFrequency": 123.258832,
      "InPlanePhaseEncodingDirection": "COL",
      "MRAcquisitionType": "2D",
      "MagneticFieldStrength": 3.0,
      "Manufacturer": "SIEMENS",
      "ManufacturerModelName": "Prisma_fit",
      "Modality": "MR",
      "NominalInterval": 0,
      "NumberOfAverages": 1.0,
      "NumberOfPhaseEncodingSteps": 83,
      "PercentPhaseFieldOfView": 100.0,
      "PercentSampling": 100.0,
      "PerformedProcedureStepStartTime": "142848.543000",
      "PhotometricInterpretation": "MONOCHROME2",
      "PixelBandwidth": 1685.0,
      "PixelRepresentation": 0,
      "PixelSpacing": [2.0, 2.0],
      "ProtocolName": "dMRI_dir106_AP_test_cmrr",
      "RepetitionTime": 2243.0,
      "Rows": 880,
      "SAR": 0.11285815447839,
      "SamplesPerPixel": 1,
      "ScanOptions": [
        "PFP",
        "EXT"
],
      "ScanningSequence": "EP",
      "SequenceVariant": [
        "SK",
        "SS"
],
      "SeriesDescription": "dMRI_dir106_AP_test_cmrr",
      "SeriesNumber": 7,
      "SeriesTime": "153131.888000",
      "SliceLocation": -36.369087356914,
      "SliceThickness": 2.0,
      "SmallestImagePixelValue": 0,
      "SoftwareVersions": "syngo MR E11",
      "SpacingBetweenSlices": 1.9999999542468,
      "SpecificCharacterSet": "ISO_IR 100",
      "StudyID": "1",
      "StudyTime": "142848.413000",
      "TransmitCoilName": "Body",
      "VariableFlipAngleFlag": "N",
      "WindowCenterWidthExplanation": "Algo1",
      "dBdt": 0.0},
    "slices": {}
  },
  "time": {
    "samples": {
      "AcquisitionNumber": [1, 2, 3, 4, 5, 6, 7, 8, 9, 10, 11, 12, 13, 14, 15, 16, 17, 18, 19, 20, 21, 22, 23, 24, 25, 26, 27, 28, 29, 30, 31, 32, 33, 34, 35, 36, 37, 38, 39, 40, 41, 42, 43, 44, 45, 46, 47, 48, 49, 50, 51, 52, 53, 54, 55, 56, 57, 58, 59, 60, 61, 62, 63, 64, 65, 66, 67, 68, 69, 70, 71, 72, 73, 74, 75, 76, 77, 78, 79, 80, 81, 82, 83, 84, 85, 86, 87, 88, 89, 90, 91, 92, 93, 94, 95, 96, 97, 98, 99, 100, 101, 102, 103, 104, 105, 106, 107],
      "AcquisitionTime": ["153035.840000", "153038.082500", "153040.325000", "153042.570000", "153044.812500", "153047.055000", "153049.297500", "153051.540000", "153053.785000", "153056.027500", "153058.270000", "153100.512500", "153102.755000", "153105.000000", "153107.242500", "153109.485000", "153111.727500", "153113.970000", "153116.215000", "153118.457500", "153120.700000", "153122.942500", "153125.185000", "153127.430000", "153129.672500", "153131.915000", "153134.157500", "153136.400000", "153138.645000", "153140.887500", "153143.130000", "153145.372500", "153147.615000", "153149.860000", "153152.102500", "153154.345000", "153156.587500", "153158.830000", "153201.075000", "153203.317500", "153205.560000", "153207.802500", "153210.045000", "153212.290000", "153214.532500", "153216.775000", "153219.017500", "153221.260000", "153223.505000", "153225.747500", "153227.990000", "153230.232500", "153232.475000", "153234.720000", "153236.962500", "153239.205000", "153241.447500", "153243.690000", "153245.935000", "153248.177500", "153250.420000", "153252.662500", "153254.905000", "153257.150000", "153259.392500", "153301.635000", "153303.877500", "153306.120000", "153308.365000", "153310.607500", "153312.850000", "153315.092500", "153317.335000", "153319.580000", "153321.822500", "153324.065000", "153326.307500", "153328.550000", "153330.795000", "153333.037500", "153335.280000", "153337.522500", "153339.765000", "153342.010000", "153344.252500", "153346.495000", "153348.737500", "153350.980000", "153353.225000", "153355.467500", "153357.710000", "153359.952500", "153402.195000", "153404.440000", "153406.682500", "153408.925000", "153411.167500", "153413.410000", "153415.655000", "153417.897500", "153420.140000", "153422.382500", "153424.625000", "153426.870000", "153429.112500", "153431.355000", "153433.597500"],
      "ContentTime": ["153131.891000", "153131.895000", "153131.898000", "153131.901000", "153131.904000", "153131.907000", "153131.914000", "153131.917000", "153131.920000", "153131.923000", "153131.926000", "153131.932000", "153131.935000", "153131.938000", "153131.947000", "153131.950000", "153131.953000", "153131.956000", "153131.960000", "153131.962000", "153131.966000", "153131.969000", "153131.972000", "153131.975000", "153231.863000", "153231.866000", "153231.869000", "153231.872000", "153231.875000", "153231.878000", "153231.881000", "153231.884000", "153231.887000", "153231.890000", "153231.894000", "153231.897000", "153231.906000", "153231.909000", "153231.912000", "153231.916000", "153231.918000", "153231.921000", "153231.925000", "153231.928000", "153231.931000", "153231.934000", "153231.937000", "153231.940000", "153231.943000", "153231.946000", "153231.949000", "153311.862000", "153311.865000", "153311.868000", "153311.871000", "153311.874000", "153311.877000", "153311.880000", "153311.883000", "153311.886000", "153311.889000", "153311.892000", "153311.903000", "153311.906000", "153311.909000", "153311.912000", "153311.915000", "153311.918000", "153311.921000", "153411.863000", "153411.866000", "153411.869000", "153411.872000", "153411.875000", "153411.878000", "153411.881000", "153411.884000", "153411.887000", "153411.890000", "153411.893000", "153411.896000", "153411.899000", "153411.902000", "153411.905000", "153411.908000", "153411.911000", "153411.914000", "153411.917000", "153411.921000", "153411.924000", "153411.927000", "153411.930000", "153411.933000", "153411.936000", "153411.939000", "153411.942000", "153438.316000", "153438.320000", "153438.323000", "153438.337000", "153438.340000", "153438.345000", "153438.350000", "153438.358000", "153438.362000", "153438.366000", "153438.369000"],
      "InstanceCreationTime": ["153131.891000", "153131.895000", "153131.898000", "153131.901000", "153131.904000", "153131.907000", "153131.914000", "153131.917000", "153131.920000", "153131.923000", "153131.926000", "153131.932000", "153131.935000", "153131.938000", "153131.947000", "153131.950000", "153131.953000", "153131.956000", "153131.960000", "153131.962000", "153131.966000", "153131.969000", "153131.972000", "153131.975000", "153231.863000", "153231.866000", "153231.869000", "153231.872000", "153231.875000", "153231.878000", "153231.881000", "153231.884000", "153231.887000", "153231.890000", "153231.894000", "153231.897000", "153231.906000", "153231.909000", "153231.912000", "153231.916000", "153231.918000", "153231.921000", "153231.925000", "153231.928000", "153231.931000", "153231.934000", "153231.937000", "153231.940000", "153231.943000", "153231.946000", "153231.949000", "153311.862000", "153311.865000", "153311.868000", "153311.871000", "153311.874000", "153311.877000", "153311.880000", "153311.883000", "153311.886000", "153311.889000", "153311.892000", "153311.903000", "153311.906000", "153311.909000", "153311.912000", "153311.915000", "153311.918000", "153311.921000", "153411.863000", "153411.866000", "153411.869000", "153411.872000", "153411.875000", "153411.878000", "153411.881000", "153411.884000", "153411.887000", "153411.890000", "153411.893000", "153411.896000", "153411.899000", "153411.902000", "153411.905000", "153411.908000", "153411.911000", "153411.914000", "153411.917000", "153411.921000", "153411.924000", "153411.927000", "153411.930000", "153411.933000", "153411.936000", "153411.939000", "153411.942000", "153438.316000", "153438.320000", "153438.323000", "153438.337000", "153438.340000", "153438.345000", "153438.350000", "153438.358000", "153438.362000", "153438.366000", "153438.369000"],
      "InstanceNumber": [1, 2, 3, 4, 5, 6, 7, 8, 9, 10, 11, 12, 13, 14, 15, 16, 17, 18, 19, 20, 21, 22, 23, 24, 25, 26, 27, 28, 29, 30, 31, 32, 33, 34, 35, 36, 37, 38, 39, 40, 41, 42, 43, 44, 45, 46, 47, 48, 49, 50, 51, 52, 53, 54, 55, 56, 57, 58, 59, 60, 61, 62, 63, 64, 65, 66, 67, 68, 69, 70, 71, 72, 73, 74, 75, 76, 77, 78, 79, 80, 81, 82, 83, 84, 85, 86, 87, 88, 89, 90, 91, 92, 93, 94, 95, 96, 97, 98, 99, 100, 101, 102, 103, 104, 105, 106, 107],
      "LargestImagePixelValue": [29487, 28733, 13055, 7218, 13376, 10769, 21471, 6615, 7244, 6580, 12713, 23207, 5924, 6281, 6490, 7303, 13368, 7298, 6437, 7312, 6501, 29844, 13466, 6854, 13354, 13181, 7319, 6194, 6461, 6609, 22172, 6641, 12413, 7614, 6050, 20907, 6283, 6765, 12844, 6450, 6126, 29388, 6923, 6751, 6581, 20953, 13181, 6041, 6135, 12886, 7488, 13014, 12721, 6846, 22703, 12517, 7984, 12937, 6331, 6174, 12439, 29792, 12620, 6385, 6364, 6976, 6567, 22465, 13033, 13487, 6464, 7278, 6300, 6997, 12513, 6762, 6514, 7174, 12741, 13224, 7207, 29633, 13128, 6065, 7320, 13716, 13465, 6507, 13334, 6835, 6778, 6317, 13225, 7036, 6580, 6966, 22248, 13251, 7487, 12961, 13416, 29207, 6617, 6833, 12305, 7356, 7031],
      "SequenceName": [
 "ep_b5#1",
 "ep_b5#1",
 "ep_b1000#2",
 "ep_b2005#3",
 "ep_b1000#4",
 "ep_b995#5",
 "ep_b300#6",
 "ep_b1995#7",
 "ep_b2000#8",
 "ep_b2000#9",
 "ep_b995#10",
 "ep_b300#11",
 "ep_b1995#12",
 "ep_b2005#13",
 "ep_b2005#14",
 "ep_b1995#15",
 "ep_b1000#16",
 "ep_b2000#17",
 "ep_b2005#18",
 "ep_b1995#19",
 "ep_b1995#20",
 "ep_b5#21",
 "ep_b995#22",
 "ep_b1990#23",
 "ep_b995#24",
 "ep_b1000#25",
 "ep_b2000#26",
 "ep_b1995#27",
 "ep_b1995#28",
 "ep_b1995#29",
 "ep_b300#30",
 "ep_b2000#31",
 "ep_b1005#32",
 "ep_b2000#33",
 "ep_b2000#34",
 "ep_b300#35",
 "ep_b2005#36",
 "ep_b1995#37",
 "ep_b1005#38",
 "ep_b2005#39",
 "ep_b2005#40",
 "ep_b5#41",
 "ep_b1995#42",
 "ep_b2000#43",
 "ep_b1995#44",
 "ep_b305#45",
 "ep_b1005#46",
 "ep_b2005#47",
 "ep_b2000#48",
 "ep_b1005#49",
 "ep_b2000#50",
 "ep_b995#51",
 "ep_b1000#52",
 "ep_b1995#53",
 "ep_b300#54",
 "ep_b1000#55",
 "ep_b2000#56",
 "ep_b1005#57",
 "ep_b2010#58",
 "ep_b2000#59",
 "ep_b1000#60",
 "ep_b5#61",
 "ep_b1000#62",
 "ep_b1995#63",
 "ep_b1995#64",
 "ep_b2005#65",
 "ep_b2010#66",
 "ep_b300#67",
 "ep_b1005#68",
 "ep_b1000#69",
 "ep_b2000#70",
 "ep_b1995#71",
 "ep_b2005#72",
 "ep_b2005#73",
 "ep_b1005#74",
 "ep_b2000#75",
 "ep_b2005#76",
 "ep_b2000#77",
 "ep_b1005#78",
 "ep_b1000#79",
 "ep_b1995#80",
 "ep_b5#81",
 "ep_b995#82",
 "ep_b2010#83",
 "ep_b2000#84",
 "ep_b995#85",
 "ep_b1000#86",
 "ep_b1995#87",
 "ep_b1005#88",
 "ep_b2005#89",
 "ep_b2005#90",
 "ep_b1995#91",
 "ep_b1005#92",
 "ep_b2005#93",
 "ep_b2000#94",
 "ep_b1995#95",
 "ep_b300#96",
 "ep_b995#97",
 "ep_b2000#98",
 "ep_b1000#99",
 "ep_b1000#100",
 "ep_b5#101",
 "ep_b2005#102",
 "ep_b2005#103",
 "ep_b1000#104",
 "ep_b2005#105",
 "ep_b1995#106"
],
      "TriggerTime": [12837.5, 15080.0, 17322.5, 19565.0, 21810.0, 24052.5, 26295.0, 28537.5, 30780.0, 33025.0, 35267.5, 37510.0, 39752.5, 41995.0, 44240.0, 46482.5, 48725.0, 50967.5, 53210.0, 55455.0, 57697.5, 59940.0, 62182.5, 64425.0, 66670.0, 68912.5, 71155.0, 73397.5, 75640.0, 77885.0, 80127.5, 82370.0, 84612.5, 86855.0, 89100.0, 91342.5, 93585.0, 95827.5, 98070.0, 100315.0, 102557.5, 104800.0, 107042.5, 109285.0, 111530.0, 113772.5, 116015.0, 118257.5, 120500.0, 122745.0, 124987.5, 127230.0, 129472.5, 131715.0, 133960.0, 136202.5, 138445.0, 140687.5, 142930.0, 145175.0, 147417.5, 149660.0, 151902.5, 154145.0, 156390.0, 158632.5, 160875.0, 163117.5, 165360.0, 167605.0, 169847.5, 172090.0, 174332.5, 176575.0, 178820.0, 181062.5, 183305.0, 185547.5, 187790.0, 190035.0, 192277.5, 194520.0, 196762.5, 199005.0, 201250.0, 203492.5, 205735.0, 207977.5, 210220.0, 212465.0, 214707.5, 216950.0, 219192.5, 221435.0, 223680.0, 225922.5, 228165.0, 230407.5, 232650.0, 234895.0, 237137.5, 239380.0, 241622.5, 243865.0, 246110.0, 248352.5, 250595.0],
      "WindowCenter": [6999.0, 6942.0, 3351.0, 2121.0, 3289.0, 3249.0, 5113.0, 2094.0, 2118.0, 2105.0, 3337.0, 5100.0, 2063.0, 2060.0, 2099.0, 2137.0, 3290.0, 2121.0, 2141.0, 2132.0, 2078.0, 6911.0, 3314.0, 2126.0, 3355.0, 3273.0, 2128.0, 2074.0, 2077.0, 2075.0, 5090.0, 2088.0, 3289.0, 2117.0, 2080.0, 5096.0, 2097.0, 2078.0, 3255.0, 2109.0, 2061.0, 6877.0, 2140.0, 2087.0, 2094.0, 5063.0, 3331.0, 2048.0, 2095.0, 3301.0, 2105.0, 3292.0, 3313.0, 2144.0, 5063.0, 3272.0, 2129.0, 3351.0, 2092.0, 2114.0, 3281.0, 6877.0, 3291.0, 2050.0, 2142.0, 2061.0, 2092.0, 5086.0, 3268.0, 3260.0, 2092.0, 2136.0, 2130.0, 2139.0, 3259.0, 2111.0, 2130.0, 2074.0, 3259.0, 3279.0, 2102.0, 6900.0, 3261.0, 2082.0, 2086.0, 3277.0, 3312.0, 2047.0, 3271.0, 2109.0, 2154.0, 2075.0, 3353.0, 2092.0, 2135.0, 2121.0, 5064.0, 3308.0, 2103.0, 3287.0, 3273.0, 6901.0, 2071.0, 2050.0, 3270.0, 2086.0, 2156.0],
      "WindowWidth": [15024.0, 14908.0, 7680.0, 5208.0, 7560.0, 7489.0, 11133.0, 5151.0, 5199.0, 5171.0, 7667.0, 11100.0, 5081.0, 5075.0, 5171.0, 5238.0, 7561.0, 5204.0, 5257.0, 5224.0, 5116.0, 14812.0, 7612.0, 5223.0, 7693.0, 7523.0, 5211.0, 5107.0, 5111.0, 5103.0, 11076.0, 5136.0, 7569.0, 5186.0, 5128.0, 11104.0, 5164.0, 5114.0, 7492.0, 5189.0, 5083.0, 14744.0, 5246.0, 5130.0, 5151.0, 11032.0, 7650.0, 5058.0, 5158.0, 7594.0, 5167.0, 7571.0, 7604.0, 5263.0, 11029.0, 7528.0, 5210.0, 7683.0, 5142.0, 5207.0, 7542.0, 14744.0, 7568.0, 5061.0, 5266.0, 5082.0, 5140.0, 11081.0, 7517.0, 7502.0, 5146.0, 5234.0, 5237.0, 5251.0, 7511.0, 5196.0, 5240.0, 5101.0, 7506.0, 7546.0, 5159.0, 14800.0, 7502.0, 5134.0, 5125.0, 7537.0, 7605.0, 5049.0, 7520.0, 5187.0, 5280.0, 5106.0, 7689.0, 5147.0, 5236.0, 5205.0, 11025.0, 7605.0, 5163.0, 7556.0, 7523.0, 14807.0, 5095.0, 5057.0, 7522.0, 5127.0, 5282.0]
    },
    "slices": {}
  }
}