{
  "AcquisitionMatrixPE": 110,
  "AcquisitionNumber": 1,
  "AcquisitionTime": "15:39:54.730000",
  "BandwidthPerPixelPhaseEncode": 12.987,
  "BaseResolution": 110,
  "BodyPartExamined": "BRAIN",
  "CoilCombinationMethod": "Sum of Squares",
  "ConsistencyInfo": "N4_VE11C_LATEST_20160120",
  "ConversionSoftware": "dcm2niix",
  "ConversionSoftwareVersion": "v1.0.20211006",
  "DerivedVendorReportedEchoSpacing": 0.000700001,
  "DeviceSerialNumber": "167006",
  "DiffusionScheme": "Monopolar",
  "DwellTime": 2.7e-06,
  "EchoTime": 0.0816,
  "EchoTrainLength": 83,
  "EffectiveEchoSpacing": 0.000700001,
  "FlipAngle": 78,
  "HeudiconvVersion": "0.5.3.post569+g418601f",
  "ImageComments": "Unaliased MB3/PE3/LB SENSE1",
  "ImageOrientationPatientDICOM": [1, 0, 0, 0, 0.942057, -0.335452],
  "ImageOrientationText": "Tra>Cor(-19.6)",
  "ImageType": [
    "ORIGINAL",
    "PRIMARY",
    "DIFFUSION",
    "NONE",
    "MB",
    "ND",
    "MOSAIC"
],
  "ImagingFrequency": 123.259,
  "InPlanePhaseEncodingDirectionDICOM": "COL",
  "InstitutionAddress": "Chemin Queen-Mary 4565,Montreal,District,CA,H3W 1W5",
  "InstitutionName": "Institut Universitaire de Geriatrie de Montreal",
  "InstitutionalDepartmentName": "Department",
  "MRAcquisitionType": "2D",
  "MagneticFieldStrength": 3,
  "Manufacturer": "Siemens",
  "ManufacturersModelName": "Prisma_fit",
  "MatrixCoilMode": "SENSE",
  "Modality": "MR",
  "MultibandAccelerationFactor": 3,
  "PartialFourier": 0.75,
  "PatientPosition": "HFS",
  "PercentPhaseFOV": 100,
  "PercentSampling": 100,
  "PhaseEncodingDirection": "j-",
  "PhaseEncodingSteps": 83,
  "PhaseResolution": 1,
  "PixelBandwidth": 1685,
  "ProcedureStepDescription": "anat^generic",
  "ProtocolName": "dMRI_dir98_AP_test_cmrr",
  "PulseSequenceDetails": "%CustomerSeq%\\cmrr_mbep2d_diff",
  "ReceiveCoilActiveElements": "HC1-6",
  "ReceiveCoilName": "HeadNeck_64",
  "ReconMatrixPE": 110,
  "RepetitionTime": 2.334,
  "SAR": 0.110091,
  "ScanOptions": "PFP\\EXT",
  "ScanningSequence": "EP",
  "SequenceName": "ep_b5#1",
  "SequenceVariant": "SK\\SS",
  "SeriesDescription": "dMRI_dir98_AP_test_cmrr",
  "SeriesNumber": 7,
  "ShimSetting": [621, -7283, -8832, 629, 18, -315, 48, -12],
  "SliceThickness": 2,
  "SliceTiming": [0, 1.2175, 0.12, 1.3375, 0.2425, 1.46, 0.365, 1.5825, 0.485, 1.705, 0.6075, 1.825, 0.73, 1.9475, 0.8525, 2.07, 0.9725, 2.19, 1.095, 0, 1.2175, 0.12, 1.3375, 0.2425, 1.46, 0.365, 1.5825, 0.485, 1.705, 0.6075, 1.825, 0.73, 1.9475, 0.8525, 2.07, 0.9725, 2.19, 1.095, 0, 1.2175, 0.12, 1.3375, 0.2425, 1.46, 0.365, 1.5825, 0.485, 1.705, 0.6075, 1.825, 0.73, 1.9475, 0.8525, 2.07, 0.9725, 2.19, 1.095],
  "SoftwareVersions": "syngo MR E11",
  "SpacingBetweenSlices": 2,
  "StationName": "MRC35049",
  "TotalReadoutTime": 0.0763001,
  "TxRefAmp": 216.835,
  "WipMemBlock": "26906df0-5ad6-4aef-96ab-415ce58687b0||Sequence: R016 ve11c/master r/e634e98; Dec 19 2017 11:11:25 by eja",
  "dcmmeta_affine": [
    [-2.0, 0.0, 0.0, 109.49686431884766],
    [0.0, 1.8841148614883423, -0.6709031462669373, -71.92621612548828],
    [0.0, 0.6709031462669373, 1.8841148614883423, -63.146705627441406],
    [0.0, 0.0, 0.0, 1.0]
],
  "dcmmeta_reorient_transform": [
    [0.0, -1.0, 0.0, 109.0],
    [1.0, 0.0, 0.0, 0.0],
    [0.0, 0.0, 1.0, 0.0],
    [0.0, 0.0, 0.0, 1.0]
],
  "dcmmeta_shape": [110, 110, 57, 99],
  "dcmmeta_slice_dim": 2,
  "dcmmeta_version": 0.6,
  "global": {
    "const": {
      "AcquisitionMatrix": [110, 0, 0, 110],
      "AngioFlag": "N",
      "BitsAllocated": 16,
      "BitsStored": 16,
      "BodyPartExamined": "BRAIN",
      "CardiacNumberOfImages": 1,
      "Columns": 880,
      "EchoNumbers": 1,
      "EchoTime": 81.6,
      "EchoTrainLength": 83,
      "FlipAngle": 78.0,
      "HighBit": 15,
      "ImageOrientationPatient": [1.0, 0.0, 0.0, 0.0, 0.94205745265343, -0.3354515701262],
      "ImagePositionPatient": [-879.49686384201, -858.82654878302, 268.27944538599],
      "ImageType": [
        "ORIGINAL",
        "PRIMARY",
        "DIFFUSION",
        "NONE",
        "MB",
        "ND",
        "MOSAIC"
],
      "ImagedNucleus": "1H",
      "ImagingFrequency": 123.258902,
      "InPlanePhaseEncodingDirection": "COL",
      "MRAcquisitionType": "2D",
      "MagneticFieldStrength": 3.0,
      "Manufacturer": "SIEMENS",
      "ManufacturerModelName": "Prisma_fit",
      "Modality": "MR",
      "NominalInterval": 0,
      "NumberOfAverages": 1.0,
      "NumberOfPhaseEncodingSteps": 83,
      "PercentPhaseFieldOfView": 100.0,
      "PercentSampling": 100.0,
      "PerformedProcedureStepStartTime": "150838.026000",
      "PhotometricInterpretation": "MONOCHROME2",
      "PixelBandwidth": 1685.0,
      "PixelRepresentation": 0,
      "PixelSpacing": [2.0, 2.0],
      "ProtocolName": "dMRI_dir98_AP_test_cmrr",
      "RepetitionTime": 2334.0,
      "Rows": 880,
      "SAR": 0.11009049826639,
      "SamplesPerPixel": 1,
      "ScanOptions": [
        "PFP",
        "EXT"
],
      "ScanningSequence": "EP",
      "SequenceVariant": [
        "SK",
        "SS"
],
      "SeriesDescription": "dMRI_dir98_AP_test_cmrr",
      "SeriesNumber": 7,
      "SeriesTime": "154056.926000",
      "SliceLocation": -35.360063335735,
      "SliceThickness": 2.0,
      "SmallestImagePixelValue": 0,
      "SoftwareVersions": "syngo MR E11",
      "SpacingBetweenSlices": 2.0000000088675,
      "SpecificCharacterSet": "ISO_IR 100",
      "StudyID": "2",
      "StudyTime": "150837.968000",
      "TransmitCoilName": "Body",
      "VariableFlipAngleFlag": "N",
      "WindowCenterWidthExplanation": "Algo1",
      "dBdt": 0.0},
    "slices": {}
  },
  "time": {
    "samples": {
      "AcquisitionNumber": [1, 2, 3, 4, 5, 6, 7, 8, 9, 10, 11, 12, 13, 14, 15, 16, 17, 18, 19, 20, 21, 22, 23, 24, 25, 26, 27, 28, 29, 30, 31, 32, 33, 34, 35, 36, 37, 38, 39, 40, 41, 42, 43, 44, 45, 46, 47, 48, 49, 50, 51, 52, 53, 54, 55, 56, 57, 58, 59, 60, 61, 62, 63, 64, 65, 66, 67, 68, 69, 70, 71, 72, 73, 74, 75, 76, 77, 78, 79, 80, 81, 82, 83, 84, 85, 86, 87, 88, 89, 90, 91, 92, 93, 94, 95, 96, 97, 98, 99],
      "AcquisitionTime": ["153954.730000", "153957.062500", "153959.397500", "154001.730000", "154004.065000", "154006.400000", "154008.732500", "154011.067500", "154013.400000", "154015.735000", "154018.070000", "154020.402500", "154022.737500", "154025.070000", "154027.405000", "154029.740000", "154032.072500", "154034.407500", "154036.740000", "154039.075000", "154041.410000", "154043.742500", "154046.077500", "154048.410000", "154050.745000", "154053.080000", "154055.412500", "154057.747500", "154100.080000", "154102.415000", "154104.750000", "154107.082500", "154109.417500", "154111.750000", "154114.085000", "154116.420000", "154118.752500", "154121.087500", "154123.420000", "154125.755000", "154128.090000", "154130.422500", "154132.757500", "154135.090000", "154137.425000", "154139.760000", "154142.092500", "154144.427500", "154146.760000", "154149.095000", "154151.430000", "154153.762500", "154156.097500", "154158.430000", "154200.765000", "154203.100000", "154205.432500", "154207.767500", "154210.100000", "154212.435000", "154214.770000", "154217.102500", "154219.437500", "154221.770000", "154224.105000", "154226.440000", "154228.772500", "154231.107500", "154233.440000", "154235.775000", "154238.110000", "154240.442500", "154242.777500", "154245.110000", "154247.445000", "154249.780000", "154252.112500", "154254.447500", "154256.780000", "154259.115000", "154301.450000", "154303.782500", "154306.117500", "154308.450000", "154310.785000", "154313.120000", "154315.452500", "154317.787500", "154320.120000", "154322.455000", "154324.790000", "154327.122500", "154329.457500", "154331.790000", "154334.125000", "154336.460000", "154338.792500", "154341.127500", "154343.460000"],
      "ContentTime": ["154056.928000", "154056.932000", "154056.935000", "154056.938000", "154056.942000", "154056.960000", "154056.963000", "154056.966000", "154056.969000", "154056.972000", "154056.975000", "154056.979000", "154056.982000", "154056.985000", "154056.988000", "154056.991000", "154056.994000", "154057.002000", "154057.005000", "154057.008000", "154057.012000", "154057.015000", "154057.018000", "154057.021000", "154057.024000", "154057.027000", "154156.895000", "154156.898000", "154156.902000", "154156.905000", "154156.908000", "154156.911000", "154156.914000", "154156.917000", "154156.920000", "154156.923000", "154156.926000", "154156.930000", "154156.935000", "154156.938000", "154156.941000", "154156.944000", "154156.948000", "154156.951000", "154156.954000", "154156.957000", "154156.960000", "154156.963000", "154156.967000", "154156.970000", "154156.973000", "154156.976000", "154256.896000", "154256.900000", "154256.903000", "154256.906000", "154256.914000", "154256.917000", "154256.920000", "154256.923000", "154256.927000", "154256.930000", "154256.933000", "154256.936000", "154256.939000", "154256.942000", "154256.946000", "154256.949000", "154256.952000", "154256.955000", "154256.958000", "154256.961000", "154256.965000", "154256.968000", "154256.971000", "154256.974000", "154256.977000", "154348.574000", "154348.580000", "154348.583000", "154348.586000", "154348.599000", "154348.603000", "154348.608000", "154348.613000", "154348.621000", "154348.626000", "154348.629000", "154348.633000", "154348.637000", "154348.641000", "154348.646000", "154348.649000", "154348.654000", "154348.658000", "154348.661000", "154348.665000", "154348.669000", "154348.673000"],
      "InstanceCreationTime": ["154056.928000", "154056.932000", "154056.935000", "154056.938000", "154056.942000", "154056.960000", "154056.963000", "154056.966000", "154056.969000", "154056.972000", "154056.975000", "154056.979000", "154056.982000", "154056.985000", "154056.988000", "154056.991000", "154056.994000", "154057.002000", "154057.005000", "154057.008000", "154057.012000", "154057.015000", "154057.018000", "154057.021000", "154057.024000", "154057.027000", "154156.895000", "154156.898000", "154156.902000", "154156.905000", "154156.908000", "154156.911000", "154156.914000", "154156.917000", "154156.920000", "154156.923000", "154156.926000", "154156.930000", "154156.935000", "154156.938000", "154156.941000", "154156.944000", "154156.948000", "154156.951000", "154156.954000", "154156.957000", "154156.960000", "154156.963000", "154156.967000", "154156.970000", "154156.973000", "154156.976000", "154256.896000", "154256.900000", "154256.903000", "154256.906000", "154256.914000", "154256.917000", "154256.920000", "154256.923000", "154256.927000", "154256.930000", "154256.933000", "154256.936000", "154256.939000", "154256.942000", "154256.946000", "154256.949000", "154256.952000", "154256.955000", "154256.958000", "154256.961000", "154256.965000", "154256.968000", "154256.971000", "154256.974000", "154256.977000", "154348.574000", "154348.580000", "154348.583000", "154348.586000", "154348.599000", "154348.603000", "154348.608000", "154348.613000", "154348.621000", "154348.626000", "154348.629000", "154348.633000", "154348.637000", "154348.641000", "154348.646000", "154348.649000", "154348.654000", "154348.658000", "154348.661000", "154348.665000", "154348.669000", "154348.673000"],
      "InstanceNumber": [1, 2, 3, 4, 5, 6, 7, 8, 9, 10, 11, 12, 13, 14, 15, 16, 17, 18, 19, 20, 21, 22, 23, 24, 25, 26, 27, 28, 29, 30, 31, 32, 33, 34, 35, 36, 37, 38, 39, 40, 41, 42, 43, 44, 45, 46, 47, 48, 49, 50, 51, 52, 53, 54, 55, 56, 57, 58, 59, 60, 61, 62, 63, 64, 65, 66, 67, 68, 69, 70, 71, 72, 73, 74, 75, 76, 77, 78, 79, 80, 81, 82, 83, 84, 85, 86, 87, 88, 89, 90, 91, 92, 93, 94, 95, 96, 97, 98, 99],
      "LargestImagePixelValue": [40828, 44193, 8967, 3325, 8752, 3620, 8563, 4331, 9399, 3912, 8674, 3471, 9072, 4146, 9459, 4434, 8329, 38412, 3888, 9549, 3960, 9429, 3564, 8668, 3649, 8335, 3659, 8481, 4638, 9172, 4027, 9202, 3627, 40267, 8864, 3651, 9493, 3990, 8221, 3504, 9111, 3930, 8353, 3649, 9435, 4016, 9383, 4103, 8946, 37821, 3500, 9409, 3981, 8202, 4916, 9104, 3972, 9051, 3953, 9697, 3906, 9097, 3479, 8725, 3816, 39929, 8806, 3920, 9733, 3620, 8884, 3579, 9342, 3794, 8287, 4022, 8775, 3641, 9318, 4271, 7860, 40521, 3633, 8803, 3617, 9262, 4037, 9337, 3482, 8205, 3636, 8714, 3703, 9157, 4240, 8158, 5068, 8940, 3612],
      "SequenceName": [
 "ep_b5#1",
 "ep_b5#1",
 "ep_b1490#2",
 "ep_b2990#3",
 "ep_b1495#4",
 "ep_b3005#5",
 "ep_b1500#6",
 "ep_b2985#7",
 "ep_b1495#8",
 "ep_b3005#9",
 "ep_b1490#10",
 "ep_b2995#11",
 "ep_b1495#12",
 "ep_b2990#13",
 "ep_b1500#14",
 "ep_b2985#15",
 "ep_b1500#16",
 "ep_b5#17",
 "ep_b3005#18",
 "ep_b1490#19",
 "ep_b2995#20",
 "ep_b1495#21",
 "ep_b3000#22",
 "ep_b1495#23",
 "ep_b3000#24",
 "ep_b1490#25",
 "ep_b2985#26",
 "ep_b1505#27",
 "ep_b2990#28",
 "ep_b1495#29",
 "ep_b3000#30",
 "ep_b1490#31",
 "ep_b3000#32",
 "ep_b5#33",
 "ep_b1505#34",
 "ep_b3000#35",
 "ep_b1490#36",
 "ep_b2985#37",
 "ep_b1495#38",
 "ep_b2995#39",
 "ep_b1500#40",
 "ep_b2995#41",
 "ep_b1500#42",
 "ep_b2990#43",
 "ep_b1495#44",
 "ep_b3000#45",
 "ep_b1495#46",
 "ep_b3000#47",
 "ep_b1490#48",
 "ep_b5#49",
 "ep_b3000#50",
 "ep_b1495#51",
 "ep_b2990#52",
 "ep_b1505#53",
 "ep_b2995#54",
 "ep_b1495#55",
 "ep_b2990#56",
 "ep_b1490#57",
 "ep_b2995#58",
 "ep_b1500#59",
 "ep_b3000#60",
 "ep_b1500#61",
 "ep_b2985#62",
 "ep_b1500#63",
 "ep_b2990#64",
 "ep_b5#65",
 "ep_b1505#66",
 "ep_b3005#67",
 "ep_b1495#68",
 "ep_b3000#69",
 "ep_b1505#70",
 "ep_b3005#71",
 "ep_b1500#72",
 "ep_b3005#73",
 "ep_b1495#74",
 "ep_b2995#75",
 "ep_b1495#76",
 "ep_b2995#77",
 "ep_b1500#78",
 "ep_b3000#79",
 "ep_b1490#80",
 "ep_b5#81",
 "ep_b2990#82",
 "ep_b1500#83",
 "ep_b2985#84",
 "ep_b1495#85",
 "ep_b2995#86",
 "ep_b1495#87",
 "ep_b2995#88",
 "ep_b1490#89",
 "ep_b2985#90",
 "ep_b1500#91",
 "ep_b3000#92",
 "ep_b1495#93",
 "ep_b3005#94",
 "ep_b1495#95",
 "ep_b2990#96",
 "ep_b1500#97",
 "ep_b3000#98"
],
      "TriggerTime": [13295.0, 15630.0, 17965.0, 20297.5, 22632.5, 24965.0, 27300.0, 29635.0, 31967.5, 34302.5, 36635.0, 38970.0, 41305.0, 43637.5, 45972.5, 48305.0, 50640.0, 52975.0, 55307.5, 57642.5, 59975.0, 62310.0, 64645.0, 66977.5, 69312.5, 71645.0, 73980.0, 76315.0, 78647.5, 80982.5, 83315.0, 85650.0, 87985.0, 90317.5, 92652.5, 94985.0, 97320.0, 99655.0, 101987.5, 104322.5, 106655.0, 108990.0, 111325.0, 113657.5, 115992.5, 118325.0, 120660.0, 122995.0, 125327.5, 127662.5, 129995.0, 132330.0, 134665.0, 136997.5, 139332.5, 141665.0, 144000.0, 146335.0, 148667.5, 151002.5, 153335.0, 155670.0, 158005.0, 160337.5, 162672.5, 165005.0, 167340.0, 169675.0, 172007.5, 174342.5, 176675.0, 179010.0, 181345.0, 183677.5, 186012.5, 188345.0, 190680.0, 193015.0, 195347.5, 197682.5, 200015.0, 202350.0, 204685.0, 207017.5, 209352.5, 211685.0, 214020.0, 216355.0, 218687.5, 221022.5, 223355.0, 225690.0, 228025.0, 230357.5, 232692.5, 235025.0, 237360.0, 239695.0, 242027.5],
      "WindowCenter": [6943.0, 6929.0, 2490.0, 1374.0, 2532.0, 1418.0, 2525.0, 1417.0, 2474.0, 1393.0, 2462.0, 1423.0, 2581.0, 1443.0, 2508.0, 1436.0, 2460.0, 6841.0, 1427.0, 2532.0, 1426.0, 2543.0, 1389.0, 2447.0, 1428.0, 2473.0, 1377.0, 2523.0, 1437.0, 2543.0, 1422.0, 2504.0, 1406.0, 6864.0, 2505.0, 1374.0, 2460.0, 1407.0, 2497.0, 1440.0, 2518.0, 1395.0, 2470.0, 1425.0, 2487.0, 1421.0, 2472.0, 1426.0, 2514.0, 6861.0, 1385.0, 2555.0, 1431.0, 2463.0, 1448.0, 2498.0, 1468.0, 2533.0, 1406.0, 2487.0, 1380.0, 2477.0, 1382.0, 2555.0, 1433.0, 6865.0, 2490.0, 1433.0, 2527.0, 1417.0, 2494.0, 1389.0, 2511.0, 1390.0, 2447.0, 1426.0, 2492.0, 1437.0, 2545.0, 1421.0, 2485.0, 6888.0, 1420.0, 2456.0, 1380.0, 2560.0, 1409.0, 2467.0, 1403.0, 2462.0, 1383.0, 2475.0, 1433.0, 2588.0, 1425.0, 2487.0, 1461.0, 2487.0, 1435.0],
      "WindowWidth": [14936.0, 14913.0, 5961.0, 3628.0, 6054.0, 3718.0, 6028.0, 3693.0, 5924.0, 3648.0, 5903.0, 3736.0, 6152.0, 3773.0, 5987.0, 3747.0, 5901.0, 14714.0, 3733.0, 6045.0, 3734.0, 6057.0, 3665.0, 5871.0, 3756.0, 5922.0, 3613.0, 6031.0, 3753.0, 6058.0, 3713.0, 5988.0, 3700.0, 14758.0, 5994.0, 3625.0, 5891.0, 3671.0, 5965.0, 3782.0, 6016.0, 3662.0, 5917.0, 3745.0, 5947.0, 3705.0, 5916.0, 3734.0, 6002.0, 14750.0, 3642.0, 6083.0, 3753.0, 5911.0, 3770.0, 5969.0, 3837.0, 6053.0, 3679.0, 5948.0, 3626.0, 5936.0, 3628.0, 6090.0, 3760.0, 14753.0, 5955.0, 3754.0, 6027.0, 3721.0, 5969.0, 3656.0, 6000.0, 3635.0, 5875.0, 3736.0, 5973.0, 3767.0, 6076.0, 3712.0, 5942.0, 14798.0, 3723.0, 5886.0, 3622.0, 6107.0, 3692.0, 5899.0, 3691.0, 5905.0, 3632.0, 5932.0, 3756.0, 6160.0, 3728.0, 5957.0, 3793.0, 5956.0, 3758.0]
    },
    "slices": {}
  }
}