{
  "AcquisitionMatrixPE": 110,
  "AcquisitionNumber": 1,
  "AcquisitionTime": "15:44:4.895000",
  "BandwidthPerPixelPhaseEncode": 12.987,
  "BaseResolution": 110,
  "BodyPartExamined": "BRAIN",
  "CoilCombinationMethod": "Sum of Squares",
  "ConsistencyInfo": "N4_VE11C_LATEST_20160120",
  "ConversionSoftware": "dcm2niix",
  "ConversionSoftwareVersion": "v1.0.20211006",
  "DerivedVendorReportedEchoSpacing": 0.000700001,
  "DeviceSerialNumber": "167006",
  "DiffusionScheme": "Monopolar",
  "DwellTime": 2.7e-06,
  "EchoTime": 0.0816,
  "EchoTrainLength": 83,
  "EffectiveEchoSpacing": 0.000700001,
  "FlipAngle": 78,
  "HeudiconvVersion": "0.5.3.post569+g418601f",
  "ImageComments": "Unaliased MB3/PE3/LB SENSE1",
  "ImageOrientationPatientDICOM": [1, 0, 0, 0, 0.942057, -0.335452],
  "ImageOrientationText": "Tra>Cor(-19.6)",
  "ImageType": [
    "ORIGINAL",
    "PRIMARY",
    "DIFFUSION",
    "NONE",
    "MB",
    "ND",
    "MOSAIC"
],
  "ImagingFrequency": 123.259,
  "InPlanePhaseEncodingDirectionDICOM": "COL",
  "InstitutionAddress": "Chemin Queen-Mary 4565,Montreal,District,CA,H3W 1W5",
  "InstitutionName": "Institut Universitaire de Geriatrie de Montreal",
  "InstitutionalDepartmentName": "Department",
  "MRAcquisitionType": "2D",
  "MagneticFieldStrength": 3,
  "Manufacturer": "Siemens",
  "ManufacturersModelName": "Prisma_fit",
  "MatrixCoilMode": "SENSE",
  "Modality": "MR",
  "MultibandAccelerationFactor": 3,
  "PartialFourier": 0.75,
  "PatientPosition": "HFS",
  "PercentPhaseFOV": 100,
  "PercentSampling": 100,
  "PhaseEncodingDirection": "j",
  "PhaseEncodingSteps": 83,
  "PhaseResolution": 1,
  "PixelBandwidth": 1685,
  "ProcedureStepDescription": "anat^generic",
  "ProtocolName": "dMRI_dir98_PA_test_cmrr",
  "PulseSequenceDetails": "%CustomerSeq%\\cmrr_mbep2d_diff",
  "ReceiveCoilActiveElements": "HC1-6",
  "ReceiveCoilName": "HeadNeck_64",
  "ReconMatrixPE": 110,
  "RepetitionTime": 2.334,
  "SAR": 0.110091,
  "ScanOptions": "PFP\\EXT",
  "ScanningSequence": "EP",
  "SequenceName": "ep_b5#1",
  "SequenceVariant": "SK\\SS",
  "SeriesDescription": "dMRI_dir98_PA_test_cmrr",
  "SeriesNumber": 11,
  "ShimSetting": [621, -7283, -8832, 629, 18, -315, 48, -12],
  "SliceThickness": 2,
  "SliceTiming": [0, 1.2175, 0.12, 1.3375, 0.2425, 1.46, 0.365, 1.5825, 0.485, 1.705, 0.6075, 1.825, 0.73, 1.9475, 0.8525, 2.07, 0.9725, 2.19, 1.095, 0, 1.2175, 0.12, 1.3375, 0.2425, 1.46, 0.365, 1.5825, 0.485, 1.705, 0.6075, 1.825, 0.73, 1.9475, 0.8525, 2.07, 0.9725, 2.19, 1.095, 0, 1.2175, 0.12, 1.3375, 0.2425, 1.46, 0.365, 1.5825, 0.485, 1.705, 0.6075, 1.825, 0.73, 1.9475, 0.8525, 2.07, 0.9725, 2.19, 1.095],
  "SoftwareVersions": "syngo MR E11",
  "SpacingBetweenSlices": 2,
  "StationName": "MRC35049",
  "TotalReadoutTime": 0.0763001,
  "TxRefAmp": 216.835,
  "WipMemBlock": "1f2f5090-eec2-4d80-8c0c-c7821dfcff89||Sequence: R016 ve11c/master r/e634e98; Dec 19 2017 11:11:25 by eja",
  "dcmmeta_affine": [
    [-2.0, 0.0, 0.0, 109.49686431884766],
    [0.0, 1.8841148614883423, -0.6709031462669373, -71.92621612548828],
    [0.0, 0.6709031462669373, 1.8841148614883423, -63.146705627441406],
    [0.0, 0.0, 0.0, 1.0]
],
  "dcmmeta_reorient_transform": [
    [0.0, -1.0, 0.0, 109.0],
    [1.0, 0.0, 0.0, 0.0],
    [0.0, 0.0, 1.0, 0.0],
    [0.0, 0.0, 0.0, 1.0]
],
  "dcmmeta_shape": [110, 110, 57, 99],
  "dcmmeta_slice_dim": 2,
  "dcmmeta_version": 0.6,
  "global": {
    "const": {
      "AcquisitionMatrix": [110, 0, 0, 110],
      "AngioFlag": "N",
      "BitsAllocated": 16,
      "BitsStored": 16,
      "BodyPartExamined": "BRAIN",
      "CardiacNumberOfImages": 1,
      "Columns": 880,
      "EchoNumbers": 1,
      "EchoTime": 81.6,
      "EchoTrainLength": 83,
      "FlipAngle": 78.0,
      "HighBit": 15,
      "ImageOrientationPatient": [1.0, 0.0, 0.0, 0.0, 0.94205745265343, -0.3354515701262],
      "ImagePositionPatient": [-879.49686384201, -858.82654878302, 268.27944538599],
      "ImageType": [
        "ORIGINAL",
        "PRIMARY",
        "DIFFUSION",
        "NONE",
        "MB",
        "ND",
        "MOSAIC"
],
      "ImagedNucleus": "1H",
      "ImagingFrequency": 123.258905,
      "InPlanePhaseEncodingDirection": "COL",
      "MRAcquisitionType": "2D",
      "MagneticFieldStrength": 3.0,
      "Manufacturer": "SIEMENS",
      "ManufacturerModelName": "Prisma_fit",
      "Modality": "MR",
      "NominalInterval": 0,
      "NumberOfAverages": 1.0,
      "NumberOfPhaseEncodingSteps": 83,
      "PercentPhaseFieldOfView": 100.0,
      "PercentSampling": 100.0,
      "PerformedProcedureStepStartTime": "150838.026000",
      "PhotometricInterpretation": "MONOCHROME2",
      "PixelBandwidth": 1685.0,
      "PixelRepresentation": 0,
      "PixelSpacing": [2.0, 2.0],
      "ProtocolName": "dMRI_dir98_PA_test_cmrr",
      "RepetitionTime": 2334.0,
      "Rows": 880,
      "SAR": 0.11009049826639,
      "SamplesPerPixel": 1,
      "ScanOptions": [
        "PFP",
        "EXT"
],
      "ScanningSequence": "EP",
      "SequenceVariant": [
        "SK",
        "SS"
],
      "SeriesDescription": "dMRI_dir98_PA_test_cmrr",
      "SeriesNumber": 11,
      "SeriesTime": "154510.219000",
      "SliceLocation": -35.360063335735,
      "SliceThickness": 2.0,
      "SmallestImagePixelValue": 0,
      "SoftwareVersions": "syngo MR E11",
      "SpacingBetweenSlices": 2.0000000088675,
      "SpecificCharacterSet": "ISO_IR 100",
      "StudyID": "2",
      "StudyTime": "150837.968000",
      "TransmitCoilName": "Body",
      "VariableFlipAngleFlag": "N",
      "WindowCenterWidthExplanation": "Algo1",
      "dBdt": 0.0},
    "slices": {}
  },
  "time": {
    "samples": {
      "AcquisitionNumber": [1, 2, 3, 4, 5, 6, 7, 8, 9, 10, 11, 12, 13, 14, 15, 16, 17, 18, 19, 20, 21, 22, 23, 24, 25, 26, 27, 28, 29, 30, 31, 32, 33, 34, 35, 36, 37, 38, 39, 40, 41, 42, 43, 44, 45, 46, 47, 48, 49, 50, 51, 52, 53, 54, 55, 56, 57, 58, 59, 60, 61, 62, 63, 64, 65, 66, 67, 68, 69, 70, 71, 72, 73, 74, 75, 76, 77, 78, 79, 80, 81, 82, 83, 84, 85, 86, 87, 88, 89, 90, 91, 92, 93, 94, 95, 96, 97, 98, 99],
      "AcquisitionTime": ["154404.895000", "154407.227500", "154409.562500", "154411.895000", "154414.230000", "154416.565000", "154418.897500", "154421.232500", "154423.565000", "154425.900000", "154428.235000", "154430.567500", "154432.902500", "154435.235000", "154437.570000", "154439.905000", "154442.237500", "154444.572500", "154446.905000", "154449.240000", "154451.575000", "154453.907500", "154456.242500", "154458.575000", "154500.910000", "154503.245000", "154505.577500", "154507.912500", "154510.245000", "154512.580000", "154514.915000", "154517.247500", "154519.582500", "154521.915000", "154524.250000", "154526.585000", "154528.917500", "154531.252500", "154533.585000", "154535.920000", "154538.255000", "154540.587500", "154542.922500", "154545.255000", "154547.590000", "154549.925000", "154552.257500", "154554.592500", "154556.925000", "154559.260000", "154601.595000", "154603.927500", "154606.262500", "154608.595000", "154610.930000", "154613.265000", "154615.597500", "154617.932500", "154620.265000", "154622.600000", "154624.935000", "154627.267500", "154629.602500", "154631.935000", "154634.270000", "154636.605000", "154638.937500", "154641.272500", "154643.605000", "154645.940000", "154648.275000", "154650.607500", "154652.942500", "154655.275000", "154657.610000", "154659.945000", "154702.277500", "154704.612500", "154706.945000", "154709.280000", "154711.615000", "154713.947500", "154716.282500", "154718.615000", "154720.950000", "154723.285000", "154725.617500", "154727.952500", "154730.285000", "154732.620000", "154734.955000", "154737.287500", "154739.622500", "154741.955000", "154744.290000", "154746.625000", "154748.957500", "154751.292500", "154753.625000"],
      "ContentTime": ["154510.223000", "154510.226000", "154510.230000", "154510.233000", "154510.236000", "154510.239000", "154510.247000", "154510.250000", "154510.253000", "154510.257000", "154510.260000", "154510.263000", "154510.266000", "154510.269000", "154510.272000", "154510.276000", "154510.279000", "154510.282000", "154510.285000", "154510.288000", "154510.292000", "154510.295000", "154510.298000", "154510.301000", "154510.304000", "154510.307000", "154510.310000", "154610.190000", "154610.193000", "154610.197000", "154610.200000", "154610.203000", "154610.206000", "154610.209000", "154610.212000", "154610.215000", "154610.218000", "154610.222000", "154610.225000", "154610.228000", "154610.231000", "154610.234000", "154610.237000", "154610.240000", "154610.243000", "154610.247000", "154610.250000", "154610.253000", "154610.256000", "154610.259000", "154610.262000", "154610.266000", "154610.269000", "154710.190000", "154710.194000", "154710.197000", "154710.200000", "154710.203000", "154710.206000", "154710.210000", "154710.213000", "154710.216000", "154710.219000", "154710.222000", "154710.225000", "154710.228000", "154710.232000", "154710.235000", "154710.238000", "154710.241000", "154710.244000", "154710.247000", "154710.250000", "154710.254000", "154710.257000", "154710.260000", "154710.263000", "154710.266000", "154710.269000", "154758.218000", "154758.232000", "154758.235000", "154758.238000", "154758.241000", "154758.244000", "154758.248000", "154758.251000", "154758.254000", "154758.257000", "154758.261000", "154758.264000", "154758.267000", "154758.271000", "154758.275000", "154758.279000", "154758.282000", "154758.286000", "154758.289000", "154758.292000"],
      "InstanceCreationTime": ["154510.223000", "154510.226000", "154510.230000", "154510.233000", "154510.236000", "154510.239000", "154510.247000", "154510.250000", "154510.253000", "154510.257000", "154510.260000", "154510.263000", "154510.266000", "154510.269000", "154510.272000", "154510.276000", "154510.279000", "154510.282000", "154510.285000", "154510.288000", "154510.292000", "154510.295000", "154510.298000", "154510.301000", "154510.304000", "154510.307000", "154510.310000", "154610.190000", "154610.193000", "154610.197000", "154610.200000", "154610.203000", "154610.206000", "154610.209000", "154610.212000", "154610.215000", "154610.218000", "154610.222000", "154610.225000", "154610.228000", "154610.231000", "154610.234000", "154610.237000", "154610.240000", "154610.243000", "154610.247000", "154610.250000", "154610.253000", "154610.256000", "154610.259000", "154610.262000", "154610.266000", "154610.269000", "154710.190000", "154710.194000", "154710.197000", "154710.200000", "154710.203000", "154710.206000", "154710.210000", "154710.213000", "154710.216000", "154710.219000", "154710.222000", "154710.225000", "154710.228000", "154710.232000", "154710.235000", "154710.238000", "154710.241000", "154710.244000", "154710.247000", "154710.250000", "154710.254000", "154710.257000", "154710.260000", "154710.263000", "154710.266000", "154710.269000", "154758.218000", "154758.232000", "154758.235000", "154758.238000", "154758.241000", "154758.244000", "154758.248000", "154758.251000", "154758.254000", "154758.257000", "154758.261000", "154758.264000", "154758.267000", "154758.271000", "154758.275000", "154758.279000", "154758.282000", "154758.286000", "154758.289000", "154758.292000"],
      "InstanceNumber": [1, 2, 3, 4, 5, 6, 7, 8, 9, 10, 11, 12, 13, 14, 15, 16, 17, 18, 19, 20, 21, 22, 23, 24, 25, 26, 27, 28, 29, 30, 31, 32, 33, 34, 35, 36, 37, 38, 39, 40, 41, 42, 43, 44, 45, 46, 47, 48, 49, 50, 51, 52, 53, 54, 55, 56, 57, 58, 59, 60, 61, 62, 63, 64, 65, 66, 67, 68, 69, 70, 71, 72, 73, 74, 75, 76, 77, 78, 79, 80, 81, 82, 83, 84, 85, 86, 87, 88, 89, 90, 91, 92, 93, 94, 95, 96, 97, 98, 99],
      "LargestImagePixelValue": [48637, 50584, 11522, 5560, 10344, 5870, 10425, 5189, 10732, 5060, 10825, 5730, 12197, 5770, 10008, 6290, 9999, 49880, 7879, 11814, 5347, 10378, 6416, 10089, 6426, 9440, 5212, 12089, 5185, 12250, 7000, 10707, 7472, 48230, 12014, 5167, 10926, 5055, 10438, 5142, 12138, 5836, 10962, 7195, 10654, 5301, 10230, 6447, 10771, 44101, 5635, 12695, 5413, 10685, 4996, 11308, 6251, 11879, 6003, 10825, 5104, 10065, 6449, 10747, 5329, 41422, 12053, 7660, 11749, 5067, 11350, 7683, 10215, 4909, 11743, 5336, 11504, 6060, 13080, 6242, 10785, 50076, 6109, 11195, 5390, 11996, 5684, 9783, 5337, 10960, 5151, 10049, 5659, 11701, 7855, 10138, 5666, 10483, 6250],
      "SequenceName": [
 "ep_b5#1",
 "ep_b5#1",
 "ep_b1490#2",
 "ep_b2990#3",
 "ep_b1495#4",
 "ep_b3005#5",
 "ep_b1500#6",
 "ep_b2985#7",
 "ep_b1495#8",
 "ep_b3005#9",
 "ep_b1490#10",
 "ep_b2995#11",
 "ep_b1495#12",
 "ep_b2990#13",
 "ep_b1500#14",
 "ep_b2985#15",
 "ep_b1500#16",
 "ep_b5#17",
 "ep_b3005#18",
 "ep_b1490#19",
 "ep_b2995#20",
 "ep_b1495#21",
 "ep_b3000#22",
 "ep_b1495#23",
 "ep_b3000#24",
 "ep_b1490#25",
 "ep_b2985#26",
 "ep_b1505#27",
 "ep_b2990#28",
 "ep_b1495#29",
 "ep_b3000#30",
 "ep_b1490#31",
 "ep_b3000#32",
 "ep_b5#33",
 "ep_b1505#34",
 "ep_b3000#35",
 "ep_b1490#36",
 "ep_b2985#37",
 "ep_b1495#38",
 "ep_b2995#39",
 "ep_b1500#40",
 "ep_b2995#41",
 "ep_b1500#42",
 "ep_b2990#43",
 "ep_b1495#44",
 "ep_b3000#45",
 "ep_b1495#46",
 "ep_b3000#47",
 "ep_b1490#48",
 "ep_b5#49",
 "ep_b3000#50",
 "ep_b1495#51",
 "ep_b2990#52",
 "ep_b1505#53",
 "ep_b2995#54",
 "ep_b1495#55",
 "ep_b2990#56",
 "ep_b1490#57",
 "ep_b2995#58",
 "ep_b1500#59",
 "ep_b3000#60",
 "ep_b1500#61",
 "ep_b2985#62",
 "ep_b1500#63",
 "ep_b2990#64",
 "ep_b5#65",
 "ep_b1505#66",
 "ep_b3005#67",
 "ep_b1495#68",
 "ep_b3000#69",
 "ep_b1505#70",
 "ep_b3005#71",
 "ep_b1500#72",
 "ep_b3005#73",
 "ep_b1495#74",
 "ep_b2995#75",
 "ep_b1495#76",
 "ep_b2995#77",
 "ep_b1500#78",
 "ep_b3000#79",
 "ep_b1490#80",
 "ep_b5#81",
 "ep_b2990#82",
 "ep_b1500#83",
 "ep_b2985#84",
 "ep_b1495#85",
 "ep_b2995#86",
 "ep_b1495#87",
 "ep_b2995#88",
 "ep_b1490#89",
 "ep_b2985#90",
 "ep_b1500#91",
 "ep_b3000#92",
 "ep_b1495#93",
 "ep_b3005#94",
 "ep_b1495#95",
 "ep_b2990#96",
 "ep_b1500#97",
 "ep_b3000#98"
],
      "TriggerTime": [13295.0, 15630.0, 17965.0, 20297.5, 22632.5, 24965.0, 27300.0, 29635.0, 31967.5, 34302.5, 36635.0, 38970.0, 41305.0, 43637.5, 45972.5, 48305.0, 50640.0, 52975.0, 55307.5, 57642.5, 59975.0, 62310.0, 64645.0, 66977.5, 69312.5, 71645.0, 73980.0, 76315.0, 78647.5, 80982.5, 83315.0, 85650.0, 87985.0, 90317.5, 92652.5, 94985.0, 97320.0, 99655.0, 101987.5, 104322.5, 106655.0, 108990.0, 111325.0, 113657.5, 115992.5, 118325.0, 120660.0, 122995.0, 125327.5, 127662.5, 129995.0, 132330.0, 134665.0, 136997.5, 139332.5, 141665.0, 144000.0, 146335.0, 148667.5, 151002.5, 153335.0, 155670.0, 158005.0, 160337.5, 162672.5, 165005.0, 167340.0, 169675.0, 172007.5, 174342.5, 176675.0, 179010.0, 181345.0, 183677.5, 186012.5, 188345.0, 190680.0, 193015.0, 195347.5, 197682.5, 200015.0, 202350.0, 204685.0, 207017.5, 209352.5, 211685.0, 214020.0, 216355.0, 218687.5, 221022.5, 223355.0, 225690.0, 228025.0, 230357.5, 232692.5, 235025.0, 237360.0, 239695.0, 242027.5],
      "WindowCenter": [6929.0, 6952.0, 2561.0, 1502.0, 2542.0, 1512.0, 2532.0, 1498.0, 2544.0, 1449.0, 2534.0, 1541.0, 2599.0, 1525.0, 2505.0, 1517.0, 2490.0, 6909.0, 1544.0, 2596.0, 1491.0, 2591.0, 1551.0, 2545.0, 1572.0, 2509.0, 1449.0, 2568.0, 1483.0, 2564.0, 1497.0, 2540.0, 1578.0, 6868.0, 2567.0, 1467.0, 2559.0, 1464.0, 2557.0, 1499.0, 2611.0, 1520.0, 2502.0, 1583.0, 2564.0, 1475.0, 2581.0, 1518.0, 2541.0, 6820.0, 1498.0, 2618.0, 1515.0, 2511.0, 1485.0, 2530.0, 1559.0, 2594.0, 1479.0, 2527.0, 1452.0, 2509.0, 1504.0, 2548.0, 1510.0, 6842.0, 2553.0, 1565.0, 2550.0, 1477.0, 2582.0, 1573.0, 2542.0, 1433.0, 2532.0, 1499.0, 2567.0, 1565.0, 2595.0, 1486.0, 2548.0, 6860.0, 1524.0, 2529.0, 1476.0, 2587.0, 1520.0, 2537.0, 1524.0, 2526.0, 1458.0, 2536.0, 1527.0, 2582.0, 1541.0, 2522.0, 1493.0, 2494.0, 1555.0],
      "WindowWidth": [14975.0, 15007.0, 6141.0, 3886.0, 6104.0, 3928.0, 6074.0, 3892.0, 6098.0, 3773.0, 6091.0, 3987.0, 6235.0, 3953.0, 6022.0, 3920.0, 5994.0, 14911.0, 3971.0, 6217.0, 3859.0, 6206.0, 4001.0, 6101.0, 4055.0, 6042.0, 3775.0, 6171.0, 3856.0, 6143.0, 3859.0, 6094.0, 4055.0, 14827.0, 6162.0, 3819.0, 6128.0, 3811.0, 6124.0, 3894.0, 6259.0, 3927.0, 6015.0, 4072.0, 6144.0, 3821.0, 6184.0, 3924.0, 6108.0, 14747.0, 3894.0, 6258.0, 3930.0, 6046.0, 3861.0, 6068.0, 4025.0, 6217.0, 3821.0, 6055.0, 3792.0, 6032.0, 3890.0, 6111.0, 3914.0, 14797.0, 6131.0, 4023.0, 6117.0, 3831.0, 6194.0, 4036.0, 6091.0, 3740.0, 6078.0, 3891.0, 6152.0, 4034.0, 6218.0, 3837.0, 6104.0, 14814.0, 3945.0, 6063.0, 3830.0, 6207.0, 3929.0, 6091.0, 3943.0, 6069.0, 3804.0, 6092.0, 3953.0, 6188.0, 3956.0, 6056.0, 3873.0, 6005.0, 4020.0]
    },
    "slices": {}
  }
}