{
  "AcquisitionMatrixPE": 110,
  "AcquisitionNumber": 1,
  "AcquisitionTime": "13:29:32.087500",
  "BandwidthPerPixelPhaseEncode": 12.987,
  "BaseResolution": 110,
  "BodyPartExamined": "BRAIN",
  "CoilCombinationMethod": "Sum of Squares",
  "ConsistencyInfo": "N4_VE11C_LATEST_20160120",
  "ConversionSoftware": "dcm2niix",
  "ConversionSoftwareVersion": "v1.0.20220505",
  "DerivedVendorReportedEchoSpacing": 0.000700001,
  "DeviceSerialNumber": "167006",
  "DiffusionScheme": "Monopolar",
  "DwellTime": 2.7e-06,
  "EchoTime": 0.0768,
  "EchoTrainLength": 83,
  "EffectiveEchoSpacing": 0.000700001,
  "FlipAngle": 78,
  "HeudiconvVersion": "0.5.3.post811+g6206e14",
  "ImageComments": "Unaliased MB3/PE3/LB SENSE1+",
  "ImageOrientationPatientDICOM": [0.999848, 0.00362859, 0.017071, -2.55046e-08, 0.978148, -0.207912],
  "ImageOrientationText": "Tra>Cor(-12.0)>Sag(1.0)",
  "ImageType": [
    "ORIGINAL",
    "PRIMARY",
    "DIFFUSION",
    "NONE",
    "MB",
    "ND",
    "MOSAIC"
],
  "ImagingFrequency": 123.259,
  "InPlanePhaseEncodingDirectionDICOM": "COL",
  "InstitutionAddress": "Chemin Queen-Mary 4565,Montreal,District,CA,H3W 1W5",
  "InstitutionName": "IUGM",
  "InstitutionalDepartmentName": "Department",
  "MRAcquisitionType": "2D",
  "MagneticFieldStrength": 3,
  "Manufacturer": "Siemens",
  "ManufacturersModelName": "Prisma_fit",
  "MatrixCoilMode": "SENSE",
  "Modality": "MR",
  "MultibandAccelerationFactor": 3,
  "PartialFourier": 0.75,
  "PatientPosition": "HFS",
  "PercentPhaseFOV": 100,
  "PercentSampling": 100,
  "PhaseEncodingDirection": "j",
  "PhaseEncodingSteps": 83,
  "PhaseResolution": 1,
  "PixelBandwidth": 1685,
  "ProcedureStepDescription": "anat^generic",
  "ProtocolName": "dMRI_dir106_PA_test_cmrr",
  "PulseSequenceDetails": "%CustomerSeq%\\cmrr_mbep2d_diff",
  "ReceiveCoilActiveElements": "HC1-7",
  "ReceiveCoilName": "HeadNeck_64",
  "ReconMatrixPE": 110,
  "RepetitionTime": 2.243,
  "SAR": 0.123865,
  "ScanOptions": "PFP\\EXT",
  "ScanningSequence": "EP",
  "SequenceName": "ep_b0",
  "SequenceVariant": "SK\\SS",
  "SeriesDescription": "dMRI_dir106_PA_test_cmrr",
  "SeriesNumber": 13,
  "ShimSetting": [610, -7257, -8775, 651, 65, -39, 19, 60],
  "SliceThickness": 2,
  "SliceTiming": [0, 1.17, 0.1175, 1.2875, 0.235, 1.405, 0.3525, 1.5225, 0.4675, 1.6375, 0.585, 1.755, 0.7025, 1.8725, 0.82, 1.99, 0.9375, 2.1075, 1.0525, 0, 1.17, 0.1175, 1.2875, 0.235, 1.405, 0.3525, 1.5225, 0.4675, 1.6375, 0.585, 1.755, 0.7025, 1.8725, 0.82, 1.99, 0.9375, 2.1075, 1.0525, 0, 1.17, 0.1175, 1.2875, 0.235, 1.405, 0.3525, 1.5225, 0.4675, 1.6375, 0.585, 1.755, 0.7025, 1.8725, 0.82, 1.99, 0.9375, 2.1075, 1.0525],
  "SoftwareVersions": "syngo MR E11",
  "SpacingBetweenSlices": 2,
  "StationName": "MRC35049",
  "TotalReadoutTime": 0.0763001,
  "TxRefAmp": 207.111,
  "WipMemBlock": "b83bd1dc-afb3-4278-a4b0-eef7e2fe0990||Sequence: R017 ve11c/master r/75a17815+; Jun 28 2022 16:41:33 by eja",
  "dcmmeta_affine": [
    [-1.9996954202651978, -5.100913469391344e-08, 0.03490482270717621, 110.33827209472656],
    [-0.007257170509546995, 1.9562952518463135, -0.4157600402832031, -85.94261169433594],
    [0.034142058342695236, 0.415823370218277, 1.9559972286224365, -55.127254486083984],
    [0.0, 0.0, 0.0, 1.0]
],
  "dcmmeta_reorient_transform": [
    [0.0, -1.0, 0.0, 109.0],
    [1.0, 0.0, 0.0, 0.0],
    [0.0, 0.0, 1.0, 0.0],
    [0.0, 0.0, 0.0, 1.0]
],
  "dcmmeta_shape": [110, 110, 57, 107],
  "dcmmeta_slice_dim": 2,
  "dcmmeta_version": 0.6,
  "global": {
    "const": {
      "AcquisitionMatrix": [110, 0, 0, 110],
      "AngioFlag": "N",
      "BitsAllocated": 16,
      "BitsStored": 16,
      "BodyPartExamined": "BRAIN",
      "CardiacNumberOfImages": 1,
      "Columns": 880,
      "EchoNumbers": 1,
      "EchoTime": 76.8,
      "EchoTrainLength": 83,
      "FlipAngle": 78.0,
      "HighBit": 15,
      "ImageOrientationPatient": [0.99984769507379, 0.00362858517909, 0.01707102882719, -2.5504568e-08, 0.97814760170058, -0.2079116862694],
      "ImagePositionPatient": [-880.22097332027, -883.26123170997, 137.14479945371],
      "ImageType": [
        "ORIGINAL",
        "PRIMARY",
        "DIFFUSION",
        "NONE",
        "MB",
        "ND",
        "MOSAIC"
],
      "ImagedNucleus": "1H",
      "ImagingFrequency": 123.259154,
      "InPlanePhaseEncodingDirection": "COL",
      "MRAcquisitionType": "2D",
      "MagneticFieldStrength": 3.0,
      "Manufacturer": "SIEMENS",
      "ManufacturerModelName": "Prisma_fit",
      "Modality": "MR",
      "NominalInterval": 0,
      "NumberOfAverages": 1.0,
      "NumberOfPhaseEncodingSteps": 83,
      "PercentPhaseFieldOfView": 100.0,
      "PercentSampling": 100.0,
      "PerformedProcedureStepStartTime": "121756.932000",
      "PhotometricInterpretation": "MONOCHROME2",
      "PixelBandwidth": 1685.0,
      "PixelRepresentation": 0,
      "PixelSpacing": [2.0, 2.0],
      "ProtocolName": "dMRI_dir106_PA_test_cmrr",
      "RepetitionTime": 2243.0,
      "Rows": 880,
      "SAR": 0.12386451905403,
      "SamplesPerPixel": 1,
      "ScanOptions": [
        "PFP",
        "EXT"
],
      "ScanningSequence": "EP",
      "SequenceVariant": [
        "SK",
        "SS"
],
      "SeriesDescription": "dMRI_dir106_PA_test_cmrr",
      "SeriesNumber": 13,
      "SeriesTime": "133018.663000",
      "SliceLocation": -34.122958738636,
      "SliceThickness": 2.0,
      "SmallestImagePixelValue": 0,
      "SoftwareVersions": "syngo MR E11",
      "SpacingBetweenSlices": 2.0000000139256,
      "SpecificCharacterSet": "ISO_IR 100",
      "StudyID": "1",
      "StudyTime": "121756.853000",
      "TransmitCoilName": "Body",
      "VariableFlipAngleFlag": "N",
      "WindowCenterWidthExplanation": "Algo1",
      "dBdt": 0.0},
    "slices": {}
  },
  "time": {
    "samples": {
      "AcquisitionNumber": [1, 2, 3, 4, 5, 6, 7, 8, 9, 10, 11, 12, 13, 14, 15, 16, 17, 18, 19, 20, 21, 22, 23, 24, 25, 26, 27, 28, 29, 30, 31, 32, 33, 34, 35, 36, 37, 38, 39, 40, 41, 42, 43, 44, 45, 46, 47, 48, 49, 50, 51, 52, 53, 54, 55, 56, 57, 58, 59, 60, 61, 62, 63, 64, 65, 66, 67, 68, 69, 70, 71, 72, 73, 74, 75, 76, 77, 78, 79, 80, 81, 82, 83, 84, 85, 86, 87, 88, 89, 90, 91, 92, 93, 94, 95, 96, 97, 98, 99, 100, 101, 102, 103, 104, 105, 106, 107],
      "AcquisitionTime": ["132932.087500", "132934.330000", "132936.575000", "132938.817500", "132941.060000", "132943.302500", "132945.545000", "132947.790000", "132950.032500", "132952.275000", "132954.517500", "132956.760000", "132959.005000", "133001.247500", "133003.490000", "133005.732500", "133007.975000", "133010.220000", "133012.462500", "133014.705000", "133016.947500", "133019.190000", "133021.435000", "133023.677500", "133025.920000", "133028.162500", "133030.405000", "133032.650000", "133034.892500", "133037.135000", "133039.377500", "133041.620000", "133043.865000", "133046.107500", "133048.350000", "133050.592500", "133052.835000", "133055.080000", "133057.322500", "133059.565000", "133101.807500", "133104.050000", "133106.295000", "133108.537500", "133110.780000", "133113.022500", "133115.265000", "133117.510000", "133119.752500", "133121.995000", "133124.237500", "133126.480000", "133128.725000", "133130.967500", "133133.210000", "133135.452500", "133137.695000", "133139.940000", "133142.182500", "133144.425000", "133146.667500", "133148.910000", "133151.155000", "133153.397500", "133155.640000", "133157.882500", "133200.125000", "133202.370000", "133204.612500", "133206.855000", "133209.097500", "133211.340000", "133213.585000", "133215.827500", "133218.070000", "133220.312500", "133222.555000", "133224.800000", "133227.042500", "133229.285000", "133231.527500", "133233.770000", "133236.015000", "133238.257500", "133240.500000", "133242.742500", "133244.985000", "133247.230000", "133249.472500", "133251.715000", "133253.957500", "133256.200000", "133258.445000", "133300.687500", "133302.930000", "133305.172500", "133307.415000", "133309.660000", "133311.902500", "133314.145000", "133316.387500", "133318.630000", "133320.875000", "133323.117500", "133325.360000", "133327.602500", "133329.845000"],
      "ContentTime": ["133018.665000", "133018.669000", "133018.672000", "133018.683000", "133018.686000", "133018.689000", "133018.692000", "133018.695000", "133018.698000", "133018.701000", "133018.704000", "133018.707000", "133018.710000", "133018.717000", "133018.720000", "133018.732000", "133018.735000", "133018.739000", "133018.742000", "133018.745000", "133118.622000", "133118.625000", "133118.628000", "133118.631000", "133118.634000", "133118.637000", "133118.640000", "133118.644000", "133118.647000", "133118.650000", "133118.653000", "133118.656000", "133118.659000", "133118.662000", "133118.665000", "133118.668000", "133118.671000", "133118.674000", "133118.677000", "133118.680000", "133118.683000", "133118.686000", "133118.689000", "133118.692000", "133118.695000", "133118.699000", "133118.702000", "133218.622000", "133218.625000", "133218.628000", "133218.631000", "133218.634000", "133218.637000", "133218.640000", "133218.643000", "133218.646000", "133218.649000", "133218.652000", "133218.655000", "133218.658000", "133218.662000", "133218.665000", "133218.668000", "133218.671000", "133218.674000", "133218.684000", "133218.687000", "133218.690000", "133218.693000", "133218.696000", "133218.699000", "133218.702000", "133218.706000", "133318.621000", "133318.625000", "133318.629000", "133318.632000", "133318.636000", "133318.639000", "133318.643000", "133318.646000", "133318.650000", "133318.653000", "133318.658000", "133318.661000", "133318.665000", "133318.668000", "133318.672000", "133318.675000", "133318.679000", "133318.682000", "133318.686000", "133318.689000", "133318.693000", "133318.696000", "133318.707000", "133318.711000", "133318.714000", "133318.718000", "133318.722000", "133334.906000", "133334.909000", "133334.912000", "133334.915000", "133334.918000", "133334.921000", "133334.924000"],
      "InstanceCreationTime": ["133018.665000", "133018.669000", "133018.672000", "133018.683000", "133018.686000", "133018.689000", "133018.692000", "133018.695000", "133018.698000", "133018.701000", "133018.704000", "133018.707000", "133018.710000", "133018.717000", "133018.720000", "133018.732000", "133018.735000", "133018.739000", "133018.742000", "133018.745000", "133118.622000", "133118.625000", "133118.628000", "133118.631000", "133118.634000", "133118.637000", "133118.640000", "133118.644000", "133118.647000", "133118.650000", "133118.653000", "133118.656000", "133118.659000", "133118.662000", "133118.665000", "133118.668000", "133118.671000", "133118.674000", "133118.677000", "133118.680000", "133118.683000", "133118.686000", "133118.689000", "133118.692000", "133118.695000", "133118.699000", "133118.702000", "133218.622000", "133218.625000", "133218.628000", "133218.631000", "133218.634000", "133218.637000", "133218.640000", "133218.643000", "133218.646000", "133218.649000", "133218.652000", "133218.655000", "133218.658000", "133218.662000", "133218.665000", "133218.668000", "133218.671000", "133218.674000", "133218.684000", "133218.687000", "133218.690000", "133218.693000", "133218.696000", "133218.699000", "133218.702000", "133218.706000", "133318.621000", "133318.625000", "133318.629000", "133318.632000", "133318.636000", "133318.639000", "133318.643000", "133318.646000", "133318.650000", "133318.653000", "133318.658000", "133318.661000", "133318.665000", "133318.668000", "133318.672000", "133318.675000", "133318.679000", "133318.682000", "133318.686000", "133318.689000", "133318.693000", "133318.696000", "133318.707000", "133318.711000", "133318.714000", "133318.718000", "133318.722000", "133334.906000", "133334.909000", "133334.912000", "133334.915000", "133334.918000", "133334.921000", "133334.924000"],
      "InstanceNumber": [1, 2, 3, 4, 5, 6, 7, 8, 9, 10, 11, 12, 13, 14, 15, 16, 17, 18, 19, 20, 21, 22, 23, 24, 25, 26, 27, 28, 29, 30, 31, 32, 33, 34, 35, 36, 37, 38, 39, 40, 41, 42, 43, 44, 45, 46, 47, 48, 49, 50, 51, 52, 53, 54, 55, 56, 57, 58, 59, 60, 61, 62, 63, 64, 65, 66, 67, 68, 69, 70, 71, 72, 73, 74, 75, 76, 77, 78, 79, 80, 81, 82, 83, 84, 85, 86, 87, 88, 89, 90, 91, 92, 93, 94, 95, 96, 97, 98, 99, 100, 101, 102, 103, 104, 105, 106, 107],
      "LargestImagePixelValue": [51165, 50797, 20490, 11870, 20760, 21088, 38822, 12054, 11637, 11429, 21757, 38222, 11751, 10984, 11961, 10745, 22310, 11290, 11519, 11654, 12445, 50016, 20654, 10806, 20866, 20798, 11319, 10595, 12092, 11337, 36213, 11636, 22954, 10628, 11869, 37357, 11997, 12009, 20661, 11741, 10705, 55504, 12167, 11513, 12407, 37546, 22250, 11779, 11100, 21327, 10774, 21846, 21651, 11783, 38950, 21839, 11005, 22012, 12364, 11412, 20307, 51207, 20102, 11298, 11121, 11293, 12375, 36995, 22041, 22051, 10796, 11264, 11895, 11742, 22160, 10858, 11289, 11094, 22274, 21195, 10830, 49710, 21589, 12139, 10671, 21944, 22076, 11074, 21227, 11991, 11538, 10542, 21611, 11322, 10752, 11816, 36241, 20658, 12019, 22361, 21100, 50197, 11280, 11564, 20673, 11247, 11542],
      "SequenceName": [
 "ep_b0",
 "ep_b0",
 "ep_b1000#2",
 "ep_b2000#3",
 "ep_b1000#4",
 "ep_b1000#5",
 "ep_b300#6",
 "ep_b2000#7",
 "ep_b2000#8",
 "ep_b2000#9",
 "ep_b1000#10",
 "ep_b300#11",
 "ep_b2000#12",
 "ep_b2000#13",
 "ep_b2000#14",
 "ep_b2000#15",
 "ep_b1000#16",
 "ep_b2000#17",
 "ep_b2000#18",
 "ep_b2000#19",
 "ep_b2000#20",
 "ep_b0",
 "ep_b1000#22",
 "ep_b2000#23",
 "ep_b1000#24",
 "ep_b1000#25",
 "ep_b2000#26",
 "ep_b2000#27",
 "ep_b2000#28",
 "ep_b2000#29",
 "ep_b300#30",
 "ep_b2000#31",
 "ep_b1000#32",
 "ep_b2000#33",
 "ep_b2000#34",
 "ep_b300#35",
 "ep_b2000#36",
 "ep_b2000#37",
 "ep_b1000#38",
 "ep_b2000#39",
 "ep_b2000#40",
 "ep_b0",
 "ep_b2000#42",
 "ep_b2000#43",
 "ep_b2000#44",
 "ep_b300#45",
 "ep_b1000#46",
 "ep_b2000#47",
 "ep_b2000#48",
 "ep_b1000#49",
 "ep_b2000#50",
 "ep_b1000#51",
 "ep_b1000#52",
 "ep_b2000#53",
 "ep_b300#54",
 "ep_b1000#55",
 "ep_b2000#56",
 "ep_b1000#57",
 "ep_b2000#58",
 "ep_b2000#59",
 "ep_b1000#60",
 "ep_b0",
 "ep_b1000#62",
 "ep_b2000#63",
 "ep_b2000#64",
 "ep_b2000#65",
 "ep_b2000#66",
 "ep_b300#67",
 "ep_b1000#68",
 "ep_b1000#69",
 "ep_b2000#70",
 "ep_b2000#71",
 "ep_b2000#72",
 "ep_b2000#73",
 "ep_b1000#74",
 "ep_b2000#75",
 "ep_b2000#76",
 "ep_b2000#77",
 "ep_b1000#78",
 "ep_b1000#79",
 "ep_b2000#80",
 "ep_b0",
 "ep_b1000#82",
 "ep_b2000#83",
 "ep_b2000#84",
 "ep_b1000#85",
 "ep_b1000#86",
 "ep_b2000#87",
 "ep_b1000#88",
 "ep_b2000#89",
 "ep_b2000#90",
 "ep_b2000#91",
 "ep_b1000#92",
 "ep_b2000#93",
 "ep_b2000#94",
 "ep_b2000#95",
 "ep_b300#96",
 "ep_b1000#97",
 "ep_b2000#98",
 "ep_b1000#99",
 "ep_b1000#100",
 "ep_b0",
 "ep_b2000#102",
 "ep_b2000#103",
 "ep_b1000#104",
 "ep_b2000#105",
 "ep_b2000#106"
],
      "TriggerTime": [12837.5, 15080.0, 17322.5, 19567.5, 21810.0, 24052.5, 26295.0, 28537.5, 30782.5, 33025.0, 35267.5, 37510.0, 39752.5, 41997.5, 44240.0, 46482.5, 48725.0, 50967.5, 53212.5, 55455.0, 57697.5, 59940.0, 62182.5, 64427.5, 66670.0, 68912.5, 71155.0, 73397.5, 75642.5, 77885.0, 80127.5, 82370.0, 84612.5, 86857.5, 89100.0, 91342.5, 93585.0, 95827.5, 98072.5, 100315.0, 102557.5, 104800.0, 107042.5, 109287.5, 111530.0, 113772.5, 116015.0, 118257.5, 120502.5, 122745.0, 124987.5, 127230.0, 129472.5, 131717.5, 133960.0, 136202.5, 138445.0, 140687.5, 142932.5, 145175.0, 147417.5, 149660.0, 151902.5, 154147.5, 156390.0, 158632.5, 160875.0, 163117.5, 165362.5, 167605.0, 169847.5, 172090.0, 174332.5, 176577.5, 178820.0, 181062.5, 183305.0, 185547.5, 187792.5, 190035.0, 192277.5, 194520.0, 196762.5, 199007.5, 201250.0, 203492.5, 205735.0, 207977.5, 210222.5, 212465.0, 214707.5, 216950.0, 219192.5, 221437.5, 223680.0, 225922.5, 228165.0, 230407.5, 232652.5, 234895.0, 237137.5, 239380.0, 241622.5, 243867.5, 246110.0, 248352.5, 250595.0],
      "WindowCenter": [7199.0, 7221.0, 3655.0, 2375.0, 3590.0, 3561.0, 5461.0, 2343.0, 2385.0, 2345.0, 3630.0, 5443.0, 2312.0, 2326.0, 2362.0, 2347.0, 3599.0, 2335.0, 2367.0, 2387.0, 2329.0, 7135.0, 3620.0, 2373.0, 3646.0, 3579.0, 2374.0, 2342.0, 2337.0, 2299.0, 5389.0, 2354.0, 3588.0, 2331.0, 2342.0, 5427.0, 2346.0, 2306.0, 3573.0, 2361.0, 2337.0, 7174.0, 2397.0, 2379.0, 2366.0, 5415.0, 3597.0, 2320.0, 2357.0, 3556.0, 2336.0, 3586.0, 3579.0, 2404.0, 5410.0, 3573.0, 2350.0, 3601.0, 2326.0, 2404.0, 3617.0, 7145.0, 3606.0, 2317.0, 2398.0, 2321.0, 2327.0, 5457.0, 3595.0, 3589.0, 2364.0, 2374.0, 2365.0, 2364.0, 3562.0, 2356.0, 2351.0, 2309.0, 3568.0, 3610.0, 2322.0, 7108.0, 3554.0, 2347.0, 2303.0, 3577.0, 3639.0, 2313.0, 3559.0, 2346.0, 2352.0, 2305.0, 3577.0, 2321.0, 2377.0, 2396.0, 5395.0, 3598.0, 2372.0, 3585.0, 3550.0, 7120.0, 2333.0, 2304.0, 3551.0, 2327.0, 2399.0],
      "WindowWidth": [15469.0, 15499.0, 8350.0, 5781.0, 8248.0, 8190.0, 11908.0, 5710.0, 5794.0, 5717.0, 8320.0, 11878.0, 5647.0, 5664.0, 5760.0, 5729.0, 8261.0, 5711.0, 5774.0, 5809.0, 5678.0, 15345.0, 8302.0, 5772.0, 8343.0, 8225.0, 5779.0, 5699.0, 5697.0, 5621.0, 11787.0, 5723.0, 8248.0, 5695.0, 5711.0, 11853.0, 5730.0, 5642.0, 8204.0, 5752.0, 5681.0, 15414.0, 5817.0, 5762.0, 5755.0, 11825.0, 8266.0, 5652.0, 5730.0, 8186.0, 5709.0, 8239.0, 8225.0, 5839.0, 11820.0, 8216.0, 5739.0, 8275.0, 5678.0, 5809.0, 8268.0, 15339.0, 8267.0, 5668.0, 5816.0, 5678.0, 5678.0, 11905.0, 8239.0, 8237.0, 5733.0, 5772.0, 5772.0, 5766.0, 8201.0, 5737.0, 5744.0, 5655.0, 8196.0, 8276.0, 5681.0, 15264.0, 8180.0, 5725.0, 5637.0, 8215.0, 8315.0, 5652.0, 8187.0, 5725.0, 5746.0, 5646.0, 8241.0, 5681.0, 5763.0, 5818.0, 11792.0, 8260.0, 5769.0, 8236.0, 8170.0, 15305.0, 5670.0, 5637.0, 8170.0, 5675.0, 5821.0]
    },
    "slices": {}
  }
}