{
  "AcquisitionMatrixPE": 110,
  "AcquisitionNumber": 1,
  "AcquisitionTime": "13:25:13.352500",
  "BandwidthPerPixelPhaseEncode": 12.987,
  "BaseResolution": 110,
  "BodyPartExamined": "BRAIN",
  "CoilCombinationMethod": "Sum of Squares",
  "ConsistencyInfo": "N4_VE11C_LATEST_20160120",
  "ConversionSoftware": "dcm2niix",
  "ConversionSoftwareVersion": "v1.0.20220505",
  "DerivedVendorReportedEchoSpacing": 0.000700001,
  "DeviceSerialNumber": "167006",
  "DiffusionScheme": "Monopolar",
  "DwellTime": 2.7e-06,
  "EchoTime": 0.0768,
  "EchoTrainLength": 83,
  "EffectiveEchoSpacing": 0.000700001,
  "FlipAngle": 78,
  "HeudiconvVersion": "0.5.3.post811+g6206e14",
  "ImageComments": "Unaliased MB3/PE3/LB SENSE1+",
  "ImageOrientationPatientDICOM": [0.999848, 0.00362859, 0.017071, -2.55046e-08, 0.978148, -0.207912],
  "ImageOrientationText": "Tra>Cor(-12.0)>Sag(1.0)",
  "ImageType": [
    "ORIGINAL",
    "PRIMARY",
    "DIFFUSION",
    "NONE",
    "MB",
    "ND",
    "MOSAIC"
],
  "ImagingFrequency": 123.259,
  "InPlanePhaseEncodingDirectionDICOM": "COL",
  "InstitutionAddress": "Chemin Queen-Mary 4565,Montreal,District,CA,H3W 1W5",
  "InstitutionName": "IUGM",
  "InstitutionalDepartmentName": "Department",
  "MRAcquisitionType": "2D",
  "MagneticFieldStrength": 3,
  "Manufacturer": "Siemens",
  "ManufacturersModelName": "Prisma_fit",
  "MatrixCoilMode": "SENSE",
  "Modality": "MR",
  "MultibandAccelerationFactor": 3,
  "PartialFourier": 0.75,
  "PatientPosition": "HFS",
  "PercentPhaseFOV": 100,
  "PercentSampling": 100,
  "PhaseEncodingDirection": "j-",
  "PhaseEncodingSteps": 83,
  "PhaseResolution": 1,
  "PixelBandwidth": 1685,
  "ProcedureStepDescription": "anat^generic",
  "ProtocolName": "dMRI_dir106_AP_test_cmrr",
  "PulseSequenceDetails": "%CustomerSeq%\\cmrr_mbep2d_diff",
  "ReceiveCoilActiveElements": "HC1-7",
  "ReceiveCoilName": "HeadNeck_64",
  "ReconMatrixPE": 110,
  "RepetitionTime": 2.243,
  "SAR": 0.123865,
  "ScanOptions": "PFP\\EXT",
  "ScanningSequence": "EP",
  "SequenceName": "ep_b0",
  "SequenceVariant": "SK\\SS",
  "SeriesDescription": "dMRI_dir106_AP_test_cmrr",
  "SeriesNumber": 9,
  "ShimSetting": [610, -7257, -8775, 651, 65, -39, 19, 60],
  "SliceThickness": 2,
  "SliceTiming": [0, 1.17, 0.115, 1.285, 0.2325, 1.4025, 0.35, 1.52, 0.4675, 1.6375, 0.585, 1.755, 0.7, 1.87, 0.8175, 1.9875, 0.935, 2.105, 1.0525, 0, 1.17, 0.115, 1.285, 0.2325, 1.4025, 0.35, 1.52, 0.4675, 1.6375, 0.585, 1.755, 0.7, 1.87, 0.8175, 1.9875, 0.935, 2.105, 1.0525, 0, 1.17, 0.115, 1.285, 0.2325, 1.4025, 0.35, 1.52, 0.4675, 1.6375, 0.585, 1.755, 0.7, 1.87, 0.8175, 1.9875, 0.935, 2.105, 1.0525],
  "SoftwareVersions": "syngo MR E11",
  "SpacingBetweenSlices": 2,
  "StationName": "MRC35049",
  "TotalReadoutTime": 0.0763001,
  "TxRefAmp": 207.111,
  "WipMemBlock": "6c5bf1ab-6b98-403a-80fe-69ce02303221||Sequence: R017 ve11c/master r/75a17815+; Jun 28 2022 16:41:33 by eja",
  "dcmmeta_affine": [
    [-1.9996954202651978, -5.100913469391344e-08, 0.03490482270717621, 110.33827209472656],
    [-0.007257170509546995, 1.9562952518463135, -0.4157600402832031, -85.94261169433594],
    [0.034142058342695236, 0.415823370218277, 1.9559972286224365, -55.127254486083984],
    [0.0, 0.0, 0.0, 1.0]
],
  "dcmmeta_reorient_transform": [
    [0.0, -1.0, 0.0, 109.0],
    [1.0, 0.0, 0.0, 0.0],
    [0.0, 0.0, 1.0, 0.0],
    [0.0, 0.0, 0.0, 1.0]
],
  "dcmmeta_shape": [110, 110, 57, 107],
  "dcmmeta_slice_dim": 2,
  "dcmmeta_version": 0.6,
  "global": {
    "const": {
      "AcquisitionMatrix": [110, 0, 0, 110],
      "AngioFlag": "N",
      "BitsAllocated": 16,
      "BitsStored": 16,
      "BodyPartExamined": "BRAIN",
      "CardiacNumberOfImages": 1,
      "Columns": 880,
      "EchoNumbers": 1,
      "EchoTime": 76.8,
      "EchoTrainLength": 83,
      "FlipAngle": 78.0,
      "HighBit": 15,
      "ImageOrientationPatient": [0.9998476950738, 0.00362858517909, 0.01707102882719, -2.5504568e-08, 0.97814760170058, -0.2079116862694],
      "ImagePositionPatient": [-880.22097332027, -883.26123170997, 137.14479945371],
      "ImageType": [
        "ORIGINAL",
        "PRIMARY",
        "DIFFUSION",
        "NONE",
        "MB",
        "ND",
        "MOSAIC"
],
      "ImagedNucleus": "1H",
      "ImagingFrequency": 123.25915,
      "InPlanePhaseEncodingDirection": "COL",
      "LargestImagePixelValue": 4095,
      "MRAcquisitionType": "2D",
      "MagneticFieldStrength": 3.0,
      "Manufacturer": "SIEMENS",
      "ManufacturerModelName": "Prisma_fit",
      "Modality": "MR",
      "NominalInterval": 0,
      "NumberOfAverages": 1.0,
      "NumberOfPhaseEncodingSteps": 83,
      "PercentPhaseFieldOfView": 100.0,
      "PercentSampling": 100.0,
      "PerformedProcedureStepStartTime": "121756.932000",
      "PhotometricInterpretation": "MONOCHROME2",
      "PixelBandwidth": 1685.0,
      "PixelRepresentation": 0,
      "PixelSpacing": [2.0, 2.0],
      "ProtocolName": "dMRI_dir106_AP_test_cmrr",
      "RepetitionTime": 2243.0,
      "RescaleIntercept": -4096.0,
      "RescaleSlope": 2.0,
      "RescaleType": "US",
      "Rows": 880,
      "SAR": 0.12386451905403,
      "SamplesPerPixel": 1,
      "ScanOptions": [
        "PFP",
        "EXT"
],
      "ScanningSequence": "EP",
      "SequenceVariant": [
        "SK",
        "SS"
],
      "SeriesDescription": "dMRI_dir106_AP_test_cmrr",
      "SeriesNumber": 9,
      "SeriesTime": "132559.195000",
      "SliceLocation": -34.122958738636,
      "SliceThickness": 2.0,
      "SmallestImagePixelValue": 0,
      "SoftwareVersions": "syngo MR E11",
      "SpacingBetweenSlices": 2.0000000139256,
      "SpecificCharacterSet": "ISO_IR 100",
      "StudyID": "1",
      "StudyTime": "121756.853000",
      "TransmitCoilName": "Body",
      "VariableFlipAngleFlag": "N",
      "WindowCenterWidthExplanation": "Algo1",
      "dBdt": 0.0},
    "slices": {}
  },
  "time": {
    "samples": {
      "AcquisitionNumber": [1, 2, 3, 4, 5, 6, 7, 8, 9, 10, 11, 12, 13, 14, 15, 16, 17, 18, 19, 20, 21, 22, 23, 24, 25, 26, 27, 28, 29, 30, 31, 32, 33, 34, 35, 36, 37, 38, 39, 40, 41, 42, 43, 44, 45, 46, 47, 48, 49, 50, 51, 52, 53, 54, 55, 56, 57, 58, 59, 60, 61, 62, 63, 64, 65, 66, 67, 68, 69, 70, 71, 72, 73, 74, 75, 76, 77, 78, 79, 80, 81, 82, 83, 84, 85, 86, 87, 88, 89, 90, 91, 92, 93, 94, 95, 96, 97, 98, 99, 100, 101, 102, 103, 104, 105, 106, 107],
      "AcquisitionTime": ["132513.352500", "132515.595000", "132517.837500", "132520.080000", "132522.322500", "132524.567500", "132526.810000", "132529.052500", "132531.295000", "132533.537500", "132535.782500", "132538.025000", "132540.267500", "132542.510000", "132544.752500", "132546.997500", "132549.240000", "132551.482500", "132553.725000", "132555.967500", "132558.212500", "132600.455000", "132602.697500", "132604.940000", "132607.182500", "132609.427500", "132611.670000", "132613.912500", "132616.155000", "132618.397500", "132620.642500", "132622.885000", "132625.127500", "132627.370000", "132629.612500", "132631.857500", "132634.100000", "132636.342500", "132638.585000", "132640.827500", "132643.072500", "132645.315000", "132647.557500", "132649.800000", "132652.042500", "132654.287500", "132656.530000", "132658.772500", "132701.015000", "132703.257500", "132705.502500", "132707.745000", "132709.987500", "132712.230000", "132714.472500", "132716.717500", "132718.960000", "132721.202500", "132723.445000", "132725.687500", "132727.932500", "132730.175000", "132732.417500", "132734.660000", "132736.902500", "132739.147500", "132741.390000", "132743.632500", "132745.875000", "132748.117500", "132750.362500", "132752.605000", "132754.847500", "132757.090000", "132759.332500", "132801.577500", "132803.820000", "132806.062500", "132808.305000", "132810.547500", "132812.792500", "132815.035000", "132817.277500", "132819.520000", "132821.762500", "132824.007500", "132826.250000", "132828.492500", "132830.735000", "132832.977500", "132835.222500", "132837.465000", "132839.707500", "132841.950000", "132844.192500", "132846.437500", "132848.680000", "132850.922500", "132853.165000", "132855.407500", "132857.652500", "132859.895000", "132902.137500", "132904.380000", "132906.622500", "132908.867500", "132911.110000"],
      "ContentTime": ["132559.197000", "132559.200000", "132559.203000", "132559.207000", "132559.211000", "132559.214000", "132559.217000", "132559.220000", "132559.296000", "132559.299000", "132559.302000", "132559.305000", "132559.308000", "132559.312000", "132559.315000", "132559.318000", "132559.321000", "132559.325000", "132559.340000", "132559.344000", "132659.177000", "132659.180000", "132659.183000", "132659.186000", "132659.189000", "132659.192000", "132659.196000", "132659.199000", "132659.202000", "132659.205000", "132659.208000", "132659.211000", "132659.221000", "132659.224000", "132659.227000", "132659.230000", "132659.233000", "132659.237000", "132659.240000", "132659.243000", "132659.246000", "132659.249000", "132659.252000", "132659.255000", "132659.258000", "132659.261000", "132759.197000", "132759.200000", "132759.203000", "132759.206000", "132759.209000", "132759.213000", "132759.216000", "132759.219000", "132759.222000", "132759.225000", "132759.228000", "132759.231000", "132759.234000", "132759.237000", "132759.241000", "132759.243000", "132759.247000", "132759.250000", "132759.253000", "132759.256000", "132759.259000", "132759.262000", "132759.265000", "132759.268000", "132759.271000", "132759.275000", "132759.278000", "132859.172000", "132859.176000", "132859.179000", "132859.182000", "132859.185000", "132859.188000", "132859.191000", "132859.194000", "132859.197000", "132859.200000", "132859.204000", "132859.207000", "132859.210000", "132859.213000", "132859.216000", "132859.219000", "132859.222000", "132859.225000", "132859.228000", "132859.232000", "132859.235000", "132859.238000", "132859.241000", "132859.244000", "132859.247000", "132859.250000", "132859.253000", "132916.191000", "132916.194000", "132916.208000", "132916.211000", "132916.214000", "132916.217000", "132916.221000"],
      "InstanceCreationTime": ["132559.197000", "132559.200000", "132559.203000", "132559.207000", "132559.211000", "132559.214000", "132559.217000", "132559.220000", "132559.296000", "132559.299000", "132559.302000", "132559.305000", "132559.308000", "132559.312000", "132559.315000", "132559.318000", "132559.321000", "132559.325000", "132559.340000", "132559.344000", "132659.177000", "132659.180000", "132659.183000", "132659.186000", "132659.189000", "132659.192000", "132659.196000", "132659.199000", "132659.202000", "132659.205000", "132659.208000", "132659.211000", "132659.221000", "132659.224000", "132659.227000", "132659.230000", "132659.233000", "132659.237000", "132659.240000", "132659.243000", "132659.246000", "132659.249000", "132659.252000", "132659.255000", "132659.258000", "132659.261000", "132759.197000", "132759.200000", "132759.203000", "132759.206000", "132759.209000", "132759.213000", "132759.216000", "132759.219000", "132759.222000", "132759.225000", "132759.228000", "132759.231000", "132759.234000", "132759.237000", "132759.241000", "132759.243000", "132759.247000", "132759.250000", "132759.253000", "132759.256000", "132759.259000", "132759.262000", "132759.265000", "132759.268000", "132759.271000", "132759.275000", "132759.278000", "132859.172000", "132859.176000", "132859.179000", "132859.182000", "132859.185000", "132859.188000", "132859.191000", "132859.194000", "132859.197000", "132859.200000", "132859.204000", "132859.207000", "132859.210000", "132859.213000", "132859.216000", "132859.219000", "132859.222000", "132859.225000", "132859.228000", "132859.232000", "132859.235000", "132859.238000", "132859.241000", "132859.244000", "132859.247000", "132859.250000", "132859.253000", "132916.191000", "132916.194000", "132916.208000", "132916.211000", "132916.214000", "132916.217000", "132916.221000"],
      "InstanceNumber": [1, 2, 3, 4, 5, 6, 7, 8, 9, 10, 11, 12, 13, 14, 15, 16, 17, 18, 19, 20, 21, 22, 23, 24, 25, 26, 27, 28, 29, 30, 31, 32, 33, 34, 35, 36, 37, 38, 39, 40, 41, 42, 43, 44, 45, 46, 47, 48, 49, 50, 51, 52, 53, 54, 55, 56, 57, 58, 59, 60, 61, 62, 63, 64, 65, 66, 67, 68, 69, 70, 71, 72, 73, 74, 75, 76, 77, 78, 79, 80, 81, 82, 83, 84, 85, 86, 87, 88, 89, 90, 91, 92, 93, 94, 95, 96, 97, 98, 99, 100, 101, 102, 103, 104, 105, 106, 107],
      "SequenceName": [
 "ep_b0",
 "ep_b0",
 "ep_b1000#2",
 "ep_b2000#3",
 "ep_b1000#4",
 "ep_b1000#5",
 "ep_b300#6",
 "ep_b2000#7",
 "ep_b2000#8",
 "ep_b2000#9",
 "ep_b1000#10",
 "ep_b300#11",
 "ep_b2000#12",
 "ep_b2000#13",
 "ep_b2000#14",
 "ep_b2000#15",
 "ep_b1000#16",
 "ep_b2000#17",
 "ep_b2000#18",
 "ep_b2000#19",
 "ep_b2000#20",
 "ep_b0",
 "ep_b1000#22",
 "ep_b2000#23",
 "ep_b1000#24",
 "ep_b1000#25",
 "ep_b2000#26",
 "ep_b2000#27",
 "ep_b2000#28",
 "ep_b2000#29",
 "ep_b300#30",
 "ep_b2000#31",
 "ep_b1000#32",
 "ep_b2000#33",
 "ep_b2000#34",
 "ep_b300#35",
 "ep_b2000#36",
 "ep_b2000#37",
 "ep_b1000#38",
 "ep_b2000#39",
 "ep_b2000#40",
 "ep_b0",
 "ep_b2000#42",
 "ep_b2000#43",
 "ep_b2000#44",
 "ep_b300#45",
 "ep_b1000#46",
 "ep_b2000#47",
 "ep_b2000#48",
 "ep_b1000#49",
 "ep_b2000#50",
 "ep_b1000#51",
 "ep_b1000#52",
 "ep_b2000#53",
 "ep_b300#54",
 "ep_b1000#55",
 "ep_b2000#56",
 "ep_b1000#57",
 "ep_b2000#58",
 "ep_b2000#59",
 "ep_b1000#60",
 "ep_b0",
 "ep_b1000#62",
 "ep_b2000#63",
 "ep_b2000#64",
 "ep_b2000#65",
 "ep_b2000#66",
 "ep_b300#67",
 "ep_b1000#68",
 "ep_b1000#69",
 "ep_b2000#70",
 "ep_b2000#71",
 "ep_b2000#72",
 "ep_b2000#73",
 "ep_b1000#74",
 "ep_b2000#75",
 "ep_b2000#76",
 "ep_b2000#77",
 "ep_b1000#78",
 "ep_b1000#79",
 "ep_b2000#80",
 "ep_b0",
 "ep_b1000#82",
 "ep_b2000#83",
 "ep_b2000#84",
 "ep_b1000#85",
 "ep_b1000#86",
 "ep_b2000#87",
 "ep_b1000#88",
 "ep_b2000#89",
 "ep_b2000#90",
 "ep_b2000#91",
 "ep_b1000#92",
 "ep_b2000#93",
 "ep_b2000#94",
 "ep_b2000#95",
 "ep_b300#96",
 "ep_b1000#97",
 "ep_b2000#98",
 "ep_b1000#99",
 "ep_b1000#100",
 "ep_b0",
 "ep_b2000#102",
 "ep_b2000#103",
 "ep_b1000#104",
 "ep_b2000#105",
 "ep_b2000#106"
],
      "TriggerTime": [12835.0, 15080.0, 17322.5, 19565.0, 21807.5, 24050.0, 26295.0, 28537.5, 30780.0, 33022.5, 35265.0, 37510.0, 39752.5, 41995.0, 44237.5, 46480.0, 48725.0, 50967.5, 53210.0, 55452.5, 57695.0, 59940.0, 62182.5, 64425.0, 66667.5, 68910.0, 71155.0, 73397.5, 75640.0, 77882.5, 80125.0, 82370.0, 84612.5, 86855.0, 89097.5, 91340.0, 93585.0, 95827.5, 98070.0, 100312.5, 102555.0, 104800.0, 107042.5, 109285.0, 111527.5, 113770.0, 116015.0, 118257.5, 120500.0, 122742.5, 124985.0, 127230.0, 129472.5, 131715.0, 133957.5, 136200.0, 138445.0, 140687.5, 142930.0, 145172.5, 147415.0, 149660.0, 151902.5, 154145.0, 156387.5, 158630.0, 160875.0, 163117.5, 165360.0, 167602.5, 169845.0, 172090.0, 174332.5, 176575.0, 178817.5, 181060.0, 183305.0, 185547.5, 187790.0, 190032.5, 192275.0, 194520.0, 196762.5, 199005.0, 201247.5, 203490.0, 205735.0, 207977.5, 210220.0, 212462.5, 214705.0, 216950.0, 219192.5, 221435.0, 223677.5, 225920.0, 228165.0, 230407.5, 232650.0, 234892.5, 237135.0, 239380.0, 241622.5, 243865.0, 246107.5, 248350.0, 250595.0],
      "WindowCenter": [4634.0, 4634.0, 4578.0, 4894.0, 5096.0, 4838.0, 4748.0, 4608.0, 5190.0, 4896.0, 5020.0, 4762.0, 4840.0, 4916.0, 5108.0, 4932.0, 5226.0, 5110.0, 4636.0, 4926.0, 4738.0, 4636.0, 5216.0, 4836.0, 4906.0, 5140.0, 5078.0, 4580.0, 5102.0, 4714.0, 4594.0, 4768.0, 4766.0, 4922.0, 5038.0, 4852.0, 5054.0, 4804.0, 5048.0, 4914.0, 4836.0, 4598.0, 4828.0, 4570.0, 5012.0, 4688.0, 4494.0, 4554.0, 4566.0, 4894.0, 4748.0, 5160.0, 4648.0, 5030.0, 4808.0, 4880.0, 5068.0, 4548.0, 5004.0, 4674.0, 4824.0, 4766.0, 4946.0, 5138.0, 4474.0, 4806.0, 4728.0, 4692.0, 4642.0, 5246.0, 4800.0, 4826.0, 4966.0, 4636.0, 4796.0, 4738.0, 4644.0, 4908.0, 4642.0, 5168.0, 4962.0, 4680.0, 5022.0, 5120.0, 5050.0, 4870.0, 4946.0, 5200.0, 5162.0, 4592.0, 4554.0, 5008.0, 4884.0, 4706.0, 4638.0, 5014.0, 4790.0, 4838.0, 5070.0, 5206.0, 4982.0, 4700.0, 4504.0, 4932.0, 4678.0, 4938.0, 4574.0],
      "WindowWidth": [18196.0, 18196.0, 18268.0, 18866.0, 18964.0, 18562.0, 18402.0, 18436.0, 19192.0, 18658.0, 18838.0, 18352.0, 18676.0, 18802.0, 19202.0, 18940.0, 19042.0, 19074.0, 18432.0, 19106.0, 18588.0, 18208.0, 19044.0, 18756.0, 18616.0, 18880.0, 19262.0, 18294.0, 19160.0, 18530.0, 18188.0, 18554.0, 18466.0, 18988.0, 18902.0, 18560.0, 19254.0, 18704.0, 18760.0, 18690.0, 18630.0, 18184.0, 18672.0, 18320.0, 19088.0, 18324.0, 18228.0, 18318.0, 18256.0, 18692.0, 18854.0, 19130.0, 18320.0, 18974.0, 18440.0, 18558.0, 19254.0, 18272.0, 18984.0, 18436.0, 18492.0, 18318.0, 18726.0, 19244.0, 18278.0, 18978.0, 18538.0, 18440.0, 18280.0, 19282.0, 18594.0, 18714.0, 18844.0, 18436.0, 18518.0, 18588.0, 18558.0, 18954.0, 18404.0, 18922.0, 18960.0, 18238.0, 18870.0, 19204.0, 19220.0, 18674.0, 18622.0, 19136.0, 19064.0, 18418.0, 18350.0, 18860.0, 18720.0, 18828.0, 18410.0, 19218.0, 18378.0, 18650.0, 19106.0, 19096.0, 18778.0, 18264.0, 18236.0, 19082.0, 18294.0, 18756.0, 18404.0]
    },
    "slices": {}
  }
}