{
  "AcquisitionMatrixPE": 110,
  "AcquisitionNumber": 1,
  "AcquisitionTime": "13:25:13.352500",
  "BandwidthPerPixelPhaseEncode": 12.987,
  "BaseResolution": 110,
  "BodyPartExamined": "BRAIN",
  "CoilCombinationMethod": "Sum of Squares",
  "ConsistencyInfo": "N4_VE11C_LATEST_20160120",
  "ConversionSoftware": "dcm2niix",
  "ConversionSoftwareVersion": "v1.0.20220505",
  "DerivedVendorReportedEchoSpacing": 0.000700001,
  "DeviceSerialNumber": "167006",
  "DiffusionScheme": "Monopolar",
  "DwellTime": 2.7e-06,
  "EchoTime": 0.0768,
  "EchoTrainLength": 83,
  "EffectiveEchoSpacing": 0.000700001,
  "FlipAngle": 78,
  "HeudiconvVersion": "0.5.3.post811+g6206e14",
  "ImageComments": "Unaliased MB3/PE3/LB SENSE1+",
  "ImageOrientationPatientDICOM": [0.999848, 0.00362859, 0.017071, -2.55046e-08, 0.978148, -0.207912],
  "ImageOrientationText": "Tra>Cor(-12.0)>Sag(1.0)",
  "ImageType": [
    "ORIGINAL",
    "PRIMARY",
    "DIFFUSION",
    "NONE",
    "MB",
    "ND",
    "MOSAIC"
],
  "ImagingFrequency": 123.259,
  "InPlanePhaseEncodingDirectionDICOM": "COL",
  "InstitutionAddress": "Chemin Queen-Mary 4565,Montreal,District,CA,H3W 1W5",
  "InstitutionName": "IUGM",
  "InstitutionalDepartmentName": "Department",
  "MRAcquisitionType": "2D",
  "MagneticFieldStrength": 3,
  "Manufacturer": "Siemens",
  "ManufacturersModelName": "Prisma_fit",
  "MatrixCoilMode": "SENSE",
  "Modality": "MR",
  "MultibandAccelerationFactor": 3,
  "PartialFourier": 0.75,
  "PatientPosition": "HFS",
  "PercentPhaseFOV": 100,
  "PercentSampling": 100,
  "PhaseEncodingDirection": "j-",
  "PhaseEncodingSteps": 83,
  "PhaseResolution": 1,
  "PixelBandwidth": 1685,
  "ProcedureStepDescription": "anat^generic",
  "ProtocolName": "dMRI_dir106_AP_test_cmrr",
  "PulseSequenceDetails": "%CustomerSeq%\\cmrr_mbep2d_diff",
  "ReceiveCoilActiveElements": "HC1-7",
  "ReceiveCoilName": "HeadNeck_64",
  "ReconMatrixPE": 110,
  "RepetitionTime": 2.243,
  "SAR": 0.123865,
  "ScanOptions": "PFP\\EXT",
  "ScanningSequence": "EP",
  "SequenceName": "ep_b0",
  "SequenceVariant": "SK\\SS",
  "SeriesDescription": "dMRI_dir106_AP_test_cmrr",
  "SeriesNumber": 8,
  "ShimSetting": [610, -7257, -8775, 651, 65, -39, 19, 60],
  "SliceThickness": 2,
  "SliceTiming": [0, 1.17, 0.115, 1.285, 0.2325, 1.4025, 0.35, 1.52, 0.4675, 1.6375, 0.585, 1.755, 0.7, 1.87, 0.8175, 1.9875, 0.935, 2.105, 1.0525, 0, 1.17, 0.115, 1.285, 0.2325, 1.4025, 0.35, 1.52, 0.4675, 1.6375, 0.585, 1.755, 0.7, 1.87, 0.8175, 1.9875, 0.935, 2.105, 1.0525, 0, 1.17, 0.115, 1.285, 0.2325, 1.4025, 0.35, 1.52, 0.4675, 1.6375, 0.585, 1.755, 0.7, 1.87, 0.8175, 1.9875, 0.935, 2.105, 1.0525],
  "SoftwareVersions": "syngo MR E11",
  "SpacingBetweenSlices": 2,
  "StationName": "MRC35049",
  "TotalReadoutTime": 0.0763001,
  "TxRefAmp": 207.111,
  "WipMemBlock": "6c5bf1ab-6b98-403a-80fe-69ce02303221||Sequence: R017 ve11c/master r/75a17815+; Jun 28 2022 16:41:33 by eja",
  "dcmmeta_affine": [
    [-1.9996954202651978, -5.100913469391344e-08, 0.03490482270717621, 110.33827209472656],
    [-0.007257170509546995, 1.9562952518463135, -0.4157600402832031, -85.94261169433594],
    [0.034142058342695236, 0.415823370218277, 1.9559972286224365, -55.127254486083984],
    [0.0, 0.0, 0.0, 1.0]
],
  "dcmmeta_reorient_transform": [
    [0.0, -1.0, 0.0, 109.0],
    [1.0, 0.0, 0.0, 0.0],
    [0.0, 0.0, 1.0, 0.0],
    [0.0, 0.0, 0.0, 1.0]
],
  "dcmmeta_shape": [110, 110, 57, 107],
  "dcmmeta_slice_dim": 2,
  "dcmmeta_version": 0.6,
  "global": {
    "const": {
      "AcquisitionMatrix": [110, 0, 0, 110],
      "AngioFlag": "N",
      "BitsAllocated": 16,
      "BitsStored": 16,
      "BodyPartExamined": "BRAIN",
      "CardiacNumberOfImages": 1,
      "Columns": 880,
      "EchoNumbers": 1,
      "EchoTime": 76.8,
      "EchoTrainLength": 83,
      "FlipAngle": 78.0,
      "HighBit": 15,
      "ImageOrientationPatient": [0.9998476950738, 0.00362858517909, 0.01707102882719, -2.5504568e-08, 0.97814760170058, -0.2079116862694],
      "ImagePositionPatient": [-880.22097332027, -883.26123170997, 137.14479945371],
      "ImageType": [
        "ORIGINAL",
        "PRIMARY",
        "DIFFUSION",
        "NONE",
        "MB",
        "ND",
        "MOSAIC"
],
      "ImagedNucleus": "1H",
      "ImagingFrequency": 123.25915,
      "InPlanePhaseEncodingDirection": "COL",
      "MRAcquisitionType": "2D",
      "MagneticFieldStrength": 3.0,
      "Manufacturer": "SIEMENS",
      "ManufacturerModelName": "Prisma_fit",
      "Modality": "MR",
      "NominalInterval": 0,
      "NumberOfAverages": 1.0,
      "NumberOfPhaseEncodingSteps": 83,
      "PercentPhaseFieldOfView": 100.0,
      "PercentSampling": 100.0,
      "PerformedProcedureStepStartTime": "121756.932000",
      "PhotometricInterpretation": "MONOCHROME2",
      "PixelBandwidth": 1685.0,
      "PixelRepresentation": 0,
      "PixelSpacing": [2.0, 2.0],
      "ProtocolName": "dMRI_dir106_AP_test_cmrr",
      "RepetitionTime": 2243.0,
      "Rows": 880,
      "SAR": 0.12386451905403,
      "SamplesPerPixel": 1,
      "ScanOptions": [
        "PFP",
        "EXT"
],
      "ScanningSequence": "EP",
      "SequenceVariant": [
        "SK",
        "SS"
],
      "SeriesDescription": "dMRI_dir106_AP_test_cmrr",
      "SeriesNumber": 8,
      "SeriesTime": "132559.091000",
      "SliceLocation": -34.122958738636,
      "SliceThickness": 2.0,
      "SmallestImagePixelValue": 0,
      "SoftwareVersions": "syngo MR E11",
      "SpacingBetweenSlices": 2.0000000139256,
      "SpecificCharacterSet": "ISO_IR 100",
      "StudyID": "1",
      "StudyTime": "121756.853000",
      "TransmitCoilName": "Body",
      "VariableFlipAngleFlag": "N",
      "WindowCenterWidthExplanation": "Algo1",
      "dBdt": 0.0},
    "slices": {}
  },
  "time": {
    "samples": {
      "AcquisitionNumber": [1, 2, 3, 4, 5, 6, 7, 8, 9, 10, 11, 12, 13, 14, 15, 16, 17, 18, 19, 20, 21, 22, 23, 24, 25, 26, 27, 28, 29, 30, 31, 32, 33, 34, 35, 36, 37, 38, 39, 40, 41, 42, 43, 44, 45, 46, 47, 48, 49, 50, 51, 52, 53, 54, 55, 56, 57, 58, 59, 60, 61, 62, 63, 64, 65, 66, 67, 68, 69, 70, 71, 72, 73, 74, 75, 76, 77, 78, 79, 80, 81, 82, 83, 84, 85, 86, 87, 88, 89, 90, 91, 92, 93, 94, 95, 96, 97, 98, 99, 100, 101, 102, 103, 104, 105, 106, 107],
      "AcquisitionTime": ["132513.352500", "132515.595000", "132517.837500", "132520.080000", "132522.322500", "132524.567500", "132526.810000", "132529.052500", "132531.295000", "132533.537500", "132535.782500", "132538.025000", "132540.267500", "132542.510000", "132544.752500", "132546.997500", "132549.240000", "132551.482500", "132553.725000", "132555.967500", "132558.212500", "132600.455000", "132602.697500", "132604.940000", "132607.182500", "132609.427500", "132611.670000", "132613.912500", "132616.155000", "132618.397500", "132620.642500", "132622.885000", "132625.127500", "132627.370000", "132629.612500", "132631.857500", "132634.100000", "132636.342500", "132638.585000", "132640.827500", "132643.072500", "132645.315000", "132647.557500", "132649.800000", "132652.042500", "132654.287500", "132656.530000", "132658.772500", "132701.015000", "132703.257500", "132705.502500", "132707.745000", "132709.987500", "132712.230000", "132714.472500", "132716.717500", "132718.960000", "132721.202500", "132723.445000", "132725.687500", "132727.932500", "132730.175000", "132732.417500", "132734.660000", "132736.902500", "132739.147500", "132741.390000", "132743.632500", "132745.875000", "132748.117500", "132750.362500", "132752.605000", "132754.847500", "132757.090000", "132759.332500", "132801.577500", "132803.820000", "132806.062500", "132808.305000", "132810.547500", "132812.792500", "132815.035000", "132817.277500", "132819.520000", "132821.762500", "132824.007500", "132826.250000", "132828.492500", "132830.735000", "132832.977500", "132835.222500", "132837.465000", "132839.707500", "132841.950000", "132844.192500", "132846.437500", "132848.680000", "132850.922500", "132853.165000", "132855.407500", "132857.652500", "132859.895000", "132902.137500", "132904.380000", "132906.622500", "132908.867500", "132911.110000"],
      "ContentTime": ["132559.093000", "132559.097000", "132559.100000", "132559.103000", "132559.106000", "132559.109000", "132559.112000", "132559.115000", "132559.118000", "132559.122000", "132559.125000", "132559.128000", "132559.131000", "132559.134000", "132559.137000", "132559.140000", "132559.143000", "132559.146000", "132559.149000", "132559.152000", "132659.051000", "132659.054000", "132659.058000", "132659.061000", "132659.064000", "132659.067000", "132659.070000", "132659.073000", "132659.076000", "132659.080000", "132659.083000", "132659.086000", "132659.089000", "132659.092000", "132659.095000", "132659.098000", "132659.102000", "132659.105000", "132659.108000", "132659.111000", "132659.114000", "132659.117000", "132659.120000", "132659.123000", "132659.126000", "132659.129000", "132759.050000", "132759.053000", "132759.056000", "132759.059000", "132759.063000", "132759.066000", "132759.069000", "132759.072000", "132759.075000", "132759.078000", "132759.081000", "132759.084000", "132759.087000", "132759.090000", "132759.093000", "132759.096000", "132759.099000", "132759.102000", "132759.105000", "132759.108000", "132759.120000", "132759.123000", "132759.126000", "132759.130000", "132759.133000", "132759.136000", "132759.139000", "132859.051000", "132859.055000", "132859.058000", "132859.061000", "132859.064000", "132859.067000", "132859.070000", "132859.073000", "132859.076000", "132859.079000", "132859.082000", "132859.085000", "132859.088000", "132859.091000", "132859.094000", "132859.097000", "132859.100000", "132859.103000", "132859.106000", "132859.109000", "132859.112000", "132859.115000", "132859.118000", "132859.121000", "132859.124000", "132859.128000", "132859.131000", "132916.130000", "132916.133000", "132916.136000", "132916.141000", "132916.144000", "132916.147000", "132916.151000"],
      "InstanceCreationTime": ["132559.093000", "132559.097000", "132559.100000", "132559.103000", "132559.106000", "132559.109000", "132559.112000", "132559.115000", "132559.118000", "132559.122000", "132559.125000", "132559.128000", "132559.131000", "132559.134000", "132559.137000", "132559.140000", "132559.143000", "132559.146000", "132559.149000", "132559.152000", "132659.051000", "132659.054000", "132659.058000", "132659.061000", "132659.064000", "132659.067000", "132659.070000", "132659.073000", "132659.076000", "132659.080000", "132659.083000", "132659.086000", "132659.089000", "132659.092000", "132659.095000", "132659.098000", "132659.102000", "132659.105000", "132659.108000", "132659.111000", "132659.114000", "132659.117000", "132659.120000", "132659.123000", "132659.126000", "132659.129000", "132759.050000", "132759.053000", "132759.056000", "132759.059000", "132759.063000", "132759.066000", "132759.069000", "132759.072000", "132759.075000", "132759.078000", "132759.081000", "132759.084000", "132759.087000", "132759.090000", "132759.093000", "132759.096000", "132759.099000", "132759.102000", "132759.105000", "132759.108000", "132759.120000", "132759.123000", "132759.126000", "132759.130000", "132759.133000", "132759.136000", "132759.139000", "132859.051000", "132859.055000", "132859.058000", "132859.061000", "132859.064000", "132859.067000", "132859.070000", "132859.073000", "132859.076000", "132859.079000", "132859.082000", "132859.085000", "132859.088000", "132859.091000", "132859.094000", "132859.097000", "132859.100000", "132859.103000", "132859.106000", "132859.109000", "132859.112000", "132859.115000", "132859.118000", "132859.121000", "132859.124000", "132859.128000", "132859.131000", "132916.130000", "132916.133000", "132916.136000", "132916.141000", "132916.144000", "132916.147000", "132916.151000"],
      "InstanceNumber": [1, 2, 3, 4, 5, 6, 7, 8, 9, 10, 11, 12, 13, 14, 15, 16, 17, 18, 19, 20, 21, 22, 23, 24, 25, 26, 27, 28, 29, 30, 31, 32, 33, 34, 35, 36, 37, 38, 39, 40, 41, 42, 43, 44, 45, 46, 47, 48, 49, 50, 51, 52, 53, 54, 55, 56, 57, 58, 59, 60, 61, 62, 63, 64, 65, 66, 67, 68, 69, 70, 71, 72, 73, 74, 75, 76, 77, 78, 79, 80, 81, 82, 83, 84, 85, 86, 87, 88, 89, 90, 91, 92, 93, 94, 95, 96, 97, 98, 99, 100, 101, 102, 103, 104, 105, 106, 107],
      "LargestImagePixelValue": [31679, 31552, 14454, 7556, 14038, 13526, 24364, 7813, 8520, 7238, 15187, 24631, 8436, 8325, 8877, 7428, 14686, 7569, 7658, 9352, 7957, 31455, 16382, 8050, 14979, 15195, 8754, 7809, 8288, 7804, 24146, 7906, 15721, 7760, 7394, 24111, 9200, 7470, 15428, 7884, 8089, 31193, 8198, 7647, 9198, 24500, 15231, 7878, 7661, 14542, 8603, 14459, 14054, 9373, 25545, 14954, 8202, 14798, 8550, 7867, 14631, 31446, 14329, 8298, 7733, 9003, 7968, 25226, 14447, 15832, 7775, 7744, 7698, 7389, 14656, 7483, 7113, 8123, 13903, 15350, 7185, 31540, 15125, 8704, 8589, 14042, 13536, 8207, 15574, 7590, 7950, 6840, 14033, 9687, 7376, 9324, 23871, 14253, 8150, 16022, 13970, 31357, 7717, 8757, 14035, 7537, 7817],
      "SequenceName": [
 "ep_b0",
 "ep_b0",
 "ep_b1000#2",
 "ep_b2000#3",
 "ep_b1000#4",
 "ep_b1000#5",
 "ep_b300#6",
 "ep_b2000#7",
 "ep_b2000#8",
 "ep_b2000#9",
 "ep_b1000#10",
 "ep_b300#11",
 "ep_b2000#12",
 "ep_b2000#13",
 "ep_b2000#14",
 "ep_b2000#15",
 "ep_b1000#16",
 "ep_b2000#17",
 "ep_b2000#18",
 "ep_b2000#19",
 "ep_b2000#20",
 "ep_b0",
 "ep_b1000#22",
 "ep_b2000#23",
 "ep_b1000#24",
 "ep_b1000#25",
 "ep_b2000#26",
 "ep_b2000#27",
 "ep_b2000#28",
 "ep_b2000#29",
 "ep_b300#30",
 "ep_b2000#31",
 "ep_b1000#32",
 "ep_b2000#33",
 "ep_b2000#34",
 "ep_b300#35",
 "ep_b2000#36",
 "ep_b2000#37",
 "ep_b1000#38",
 "ep_b2000#39",
 "ep_b2000#40",
 "ep_b0",
 "ep_b2000#42",
 "ep_b2000#43",
 "ep_b2000#44",
 "ep_b300#45",
 "ep_b1000#46",
 "ep_b2000#47",
 "ep_b2000#48",
 "ep_b1000#49",
 "ep_b2000#50",
 "ep_b1000#51",
 "ep_b1000#52",
 "ep_b2000#53",
 "ep_b300#54",
 "ep_b1000#55",
 "ep_b2000#56",
 "ep_b1000#57",
 "ep_b2000#58",
 "ep_b2000#59",
 "ep_b1000#60",
 "ep_b0",
 "ep_b1000#62",
 "ep_b2000#63",
 "ep_b2000#64",
 "ep_b2000#65",
 "ep_b2000#66",
 "ep_b300#67",
 "ep_b1000#68",
 "ep_b1000#69",
 "ep_b2000#70",
 "ep_b2000#71",
 "ep_b2000#72",
 "ep_b2000#73",
 "ep_b1000#74",
 "ep_b2000#75",
 "ep_b2000#76",
 "ep_b2000#77",
 "ep_b1000#78",
 "ep_b1000#79",
 "ep_b2000#80",
 "ep_b0",
 "ep_b1000#82",
 "ep_b2000#83",
 "ep_b2000#84",
 "ep_b1000#85",
 "ep_b1000#86",
 "ep_b2000#87",
 "ep_b1000#88",
 "ep_b2000#89",
 "ep_b2000#90",
 "ep_b2000#91",
 "ep_b1000#92",
 "ep_b2000#93",
 "ep_b2000#94",
 "ep_b2000#95",
 "ep_b300#96",
 "ep_b1000#97",
 "ep_b2000#98",
 "ep_b1000#99",
 "ep_b1000#100",
 "ep_b0",
 "ep_b2000#102",
 "ep_b2000#103",
 "ep_b1000#104",
 "ep_b2000#105",
 "ep_b2000#106"
],
      "TriggerTime": [12835.0, 15080.0, 17322.5, 19565.0, 21807.5, 24050.0, 26295.0, 28537.5, 30780.0, 33022.5, 35265.0, 37510.0, 39752.5, 41995.0, 44237.5, 46480.0, 48725.0, 50967.5, 53210.0, 55452.5, 57695.0, 59940.0, 62182.5, 64425.0, 66667.5, 68910.0, 71155.0, 73397.5, 75640.0, 77882.5, 80125.0, 82370.0, 84612.5, 86855.0, 89097.5, 91340.0, 93585.0, 95827.5, 98070.0, 100312.5, 102555.0, 104800.0, 107042.5, 109285.0, 111527.5, 113770.0, 116015.0, 118257.5, 120500.0, 122742.5, 124985.0, 127230.0, 129472.5, 131715.0, 133957.5, 136200.0, 138445.0, 140687.5, 142930.0, 145172.5, 147415.0, 149660.0, 151902.5, 154145.0, 156387.5, 158630.0, 160875.0, 163117.5, 165360.0, 167602.5, 169845.0, 172090.0, 174332.5, 176575.0, 178817.5, 181060.0, 183305.0, 185547.5, 187790.0, 190032.5, 192275.0, 194520.0, 196762.5, 199005.0, 201247.5, 203490.0, 205735.0, 207977.5, 210220.0, 212462.5, 214705.0, 216950.0, 219192.5, 221435.0, 223677.5, 225920.0, 228165.0, 230407.5, 232650.0, 234892.5, 237135.0, 239380.0, 241622.5, 243865.0, 246107.5, 248350.0, 250595.0],
      "WindowCenter": [7035.0, 7034.0, 3568.0, 2278.0, 3515.0, 3539.0, 5368.0, 2277.0, 2306.0, 2324.0, 3553.0, 5333.0, 2290.0, 2287.0, 2349.0, 2281.0, 3524.0, 2269.0, 2346.0, 2305.0, 2277.0, 6980.0, 3544.0, 2306.0, 3574.0, 3554.0, 2293.0, 2329.0, 2288.0, 2275.0, 5356.0, 2266.0, 3546.0, 2278.0, 2277.0, 5335.0, 2347.0, 2265.0, 3528.0, 2345.0, 2299.0, 6953.0, 2331.0, 2279.0, 2318.0, 5314.0, 3558.0, 2274.0, 2354.0, 3510.0, 2305.0, 3544.0, 3563.0, 2334.0, 5344.0, 3534.0, 2277.0, 3568.0, 2301.0, 2331.0, 3542.0, 6973.0, 3519.0, 2278.0, 2311.0, 2291.0, 2291.0, 5359.0, 3496.0, 3527.0, 2306.0, 2292.0, 2335.0, 2293.0, 3499.0, 2286.0, 2291.0, 2286.0, 3490.0, 3509.0, 2252.0, 6964.0, 3527.0, 2329.0, 2291.0, 3516.0, 3524.0, 2288.0, 3513.0, 2290.0, 2348.0, 2266.0, 3565.0, 2326.0, 2321.0, 2318.0, 5344.0, 3517.0, 2266.0, 3563.0, 3515.0, 6954.0, 2273.0, 2273.0, 3581.0, 2254.0, 2309.0],
      "WindowWidth": [15080.0, 15079.0, 8118.0, 5544.0, 8015.0, 8055.0, 11633.0, 5535.0, 5594.0, 5637.0, 8080.0, 11570.0, 5548.0, 5541.0, 5682.0, 5558.0, 8033.0, 5531.0, 5668.0, 5593.0, 5528.0, 14951.0, 8067.0, 5587.0, 8125.0, 8086.0, 5573.0, 5629.0, 5545.0, 5523.0, 11602.0, 5514.0, 8064.0, 5545.0, 5542.0, 11567.0, 5670.0, 5516.0, 8043.0, 5674.0, 5567.0, 14906.0, 5634.0, 5541.0, 5607.0, 11530.0, 8088.0, 5519.0, 5683.0, 8002.0, 5597.0, 8065.0, 8103.0, 5644.0, 11588.0, 8040.0, 5535.0, 8107.0, 5570.0, 5644.0, 8072.0, 14944.0, 8035.0, 5536.0, 5615.0, 5568.0, 5557.0, 11612.0, 7985.0, 8037.0, 5599.0, 5569.0, 5654.0, 5574.0, 7984.0, 5572.0, 5569.0, 5552.0, 7969.0, 8004.0, 5497.0, 14931.0, 8032.0, 5629.0, 5565.0, 8019.0, 8045.0, 5546.0, 8011.0, 5557.0, 5672.0, 5519.0, 8104.0, 5627.0, 5632.0, 5619.0, 11584.0, 8023.0, 5518.0, 8101.0, 8013.0, 14905.0, 5520.0, 5525.0, 8139.0, 5492.0, 5596.0]
    },
    "slices": {}
  }
}