{
  "AcquisitionMatrixPE": 110,
  "AcquisitionNumber": 1,
  "AcquisitionTime": "17:04:50.135000",
  "BandwidthPerPixelPhaseEncode": 12.987,
  "BaseResolution": 110,
  "BodyPartExamined": "BRAIN",
  "CoilCombinationMethod": "Sum of Squares",
  "ConsistencyInfo": "N4_VE11C_LATEST_20160120",
  "ConversionSoftware": "dcm2niix",
  "ConversionSoftwareVersion": "v1.0.20211006",
  "DerivedVendorReportedEchoSpacing": 0.000700001,
  "DeviceSerialNumber": "167006",
  "DiffusionScheme": "Monopolar",
  "DwellTime": 2.7e-06,
  "EchoTime": 0.0816,
  "EchoTrainLength": 83,
  "EffectiveEchoSpacing": 0.000700001,
  "FlipAngle": 78,
  "HeudiconvVersion": "0.5.3.post569+g418601f",
  "ImageComments": "Unaliased MB3/PE3/LB SENSE1",
  "ImageOrientationPatientDICOM": [1, 0, 0, 0, 0.978148, -0.207912],
  "ImageOrientationText": "Tra>Cor(-12.0)",
  "ImageType": [
    "ORIGINAL",
    "PRIMARY",
    "DIFFUSION",
    "NONE",
    "MB",
    "ND",
    "MOSAIC"
],
  "ImagingFrequency": 123.259,
  "InPlanePhaseEncodingDirectionDICOM": "COL",
  "InstitutionAddress": "Chemin Queen-Mary 4565,Montreal,District,CA,H3W 1W5",
  "InstitutionName": "IUGM",
  "InstitutionalDepartmentName": "Department",
  "MRAcquisitionType": "2D",
  "MagneticFieldStrength": 3,
  "Manufacturer": "Siemens",
  "ManufacturersModelName": "Prisma_fit",
  "MatrixCoilMode": "SENSE",
  "Modality": "MR",
  "MultibandAccelerationFactor": 3,
  "PartialFourier": 0.75,
  "PatientPosition": "HFS",
  "PercentPhaseFOV": 100,
  "PercentSampling": 100,
  "PhaseEncodingDirection": "j-",
  "PhaseEncodingSteps": 83,
  "PhaseResolution": 1,
  "PixelBandwidth": 1685,
  "ProcedureStepDescription": "anat^generic",
  "ProtocolName": "dMRI_dir98_AP_test_cmrr",
  "PulseSequenceDetails": "%CustomerSeq%\\cmrr_mbep2d_diff",
  "ReceiveCoilActiveElements": "HC1-6",
  "ReceiveCoilName": "HeadNeck_64",
  "ReconMatrixPE": 110,
  "RepetitionTime": 2.334,
  "SAR": 0.115216,
  "ScanOptions": "PFP\\EXT",
  "ScanningSequence": "EP",
  "SequenceName": "ep_b5#1",
  "SequenceVariant": "SK\\SS",
  "SeriesDescription": "dMRI_dir98_AP_test_cmrr",
  "SeriesNumber": 8,
  "ShimSetting": [626, -7200, -8760, 598, 27, 73, 86, -12],
  "SliceThickness": 2,
  "SliceTiming": [0, 1.2175, 0.12, 1.3375, 0.2425, 1.46, 0.365, 1.5825, 0.4875, 1.705, 0.6075, 1.825, 0.73, 1.9475, 0.8525, 2.07, 0.9725, 2.19, 1.095, 0, 1.2175, 0.12, 1.3375, 0.2425, 1.46, 0.365, 1.5825, 0.4875, 1.705, 0.6075, 1.825, 0.73, 1.9475, 0.8525, 2.07, 0.9725, 2.19, 1.095, 0, 1.2175, 0.12, 1.3375, 0.2425, 1.46, 0.365, 1.5825, 0.4875, 1.705, 0.6075, 1.825, 0.73, 1.9475, 0.8525, 2.07, 0.9725, 2.19, 1.095],
  "SoftwareVersions": "syngo MR E11",
  "SpacingBetweenSlices": 2,
  "StationName": "MRC35049",
  "TotalReadoutTime": 0.0763001,
  "TxRefAmp": 207.381,
  "WipMemBlock": "a798d3d9-894a-44ca-a245-c3e9cfae07e6||Sequence: R016 ve11c/master r/e634e98; Dec 19 2017 11:11:25 by eja",
  "dcmmeta_affine": [
    [-2.0, 0.0, 0.0, 111.52603149414062],
    [0.0, 1.9562952518463135, -0.415823370218277, -84.26680755615234],
    [0.0, 0.415823370218277, 1.956295132637024, -30.363338470458984],
    [0.0, 0.0, 0.0, 1.0]
],
  "dcmmeta_reorient_transform": [
    [0.0, -1.0, 0.0, 109.0],
    [1.0, 0.0, 0.0, 0.0],
    [0.0, 0.0, 1.0, 0.0],
    [0.0, 0.0, 0.0, 1.0]
],
  "dcmmeta_shape": [110, 110, 57, 99],
  "dcmmeta_slice_dim": 2,
  "dcmmeta_version": 0.6,
  "global": {
    "const": {
      "AcquisitionMatrix": [110, 0, 0, 110],
      "AngioFlag": "N",
      "BitsAllocated": 16,
      "BitsStored": 16,
      "BodyPartExamined": "BRAIN",
      "CardiacNumberOfImages": 1,
      "Columns": 880,
      "EchoNumbers": 1,
      "EchoTime": 81.6,
      "EchoTrainLength": 83,
      "FlipAngle": 78.0,
      "HighBit": 15,
      "ImageOrientationPatient": [1.0, 0.0, 0.0, 0.0, 0.97814760155, -0.2079116869779],
      "ImagePositionPatient": [-881.52603316307, -882.14302588439, 175.05340907515],
      "ImageType": [
        "ORIGINAL",
        "PRIMARY",
        "DIFFUSION",
        "NONE",
        "MB",
        "ND",
        "MOSAIC"
],
      "ImagedNucleus": "1H",
      "ImagingFrequency": 123.258955,
      "InPlanePhaseEncodingDirection": "COL",
      "MRAcquisitionType": "2D",
      "MagneticFieldStrength": 3.0,
      "Manufacturer": "SIEMENS",
      "ManufacturerModelName": "Prisma_fit",
      "Modality": "MR",
      "NominalInterval": 0,
      "NumberOfAverages": 1.0,
      "NumberOfPhaseEncodingSteps": 83,
      "PercentPhaseFieldOfView": 100.0,
      "PercentSampling": 100.0,
      "PerformedProcedureStepStartTime": "163613.603000",
      "PhotometricInterpretation": "MONOCHROME2",
      "PixelBandwidth": 1685.0,
      "PixelRepresentation": 0,
      "PixelSpacing": [2.0, 2.0],
      "ProtocolName": "dMRI_dir98_AP_test_cmrr",
      "RepetitionTime": 2334.0,
      "Rows": 880,
      "SAR": 0.11521554718279,
      "SamplesPerPixel": 1,
      "ScanOptions": [
        "PFP",
        "EXT"
],
      "ScanningSequence": "EP",
      "SequenceVariant": [
        "SK",
        "SS"
],
      "SeriesDescription": "dMRI_dir98_AP_test_cmrr",
      "SeriesNumber": 8,
      "SeriesTime": "170551.424000",
      "SliceLocation": -12.179772437394,
      "SliceThickness": 2.0,
      "SmallestImagePixelValue": 0,
      "SoftwareVersions": "syngo MR E11",
      "SpacingBetweenSlices": 1.9999999627301,
      "SpecificCharacterSet": "ISO_IR 100",
      "StudyID": "1",
      "StudyTime": "163613.489000",
      "TransmitCoilName": "Body",
      "VariableFlipAngleFlag": "N",
      "WindowCenterWidthExplanation": "Algo1",
      "dBdt": 0.0},
    "slices": {}
  },
  "time": {
    "samples": {
      "AcquisitionNumber": [1, 2, 3, 4, 5, 6, 7, 8, 9, 10, 11, 12, 13, 14, 15, 16, 17, 18, 19, 20, 21, 22, 23, 24, 25, 26, 27, 28, 29, 30, 31, 32, 33, 34, 35, 36, 37, 38, 39, 40, 41, 42, 43, 44, 45, 46, 47, 48, 49, 50, 51, 52, 53, 54, 55, 56, 57, 58, 59, 60, 61, 62, 63, 64, 65, 66, 67, 68, 69, 70, 71, 72, 73, 74, 75, 76, 77, 78, 79, 80, 81, 82, 83, 84, 85, 86, 87, 88, 89, 90, 91, 92, 93, 94, 95, 96, 97, 98, 99],
      "AcquisitionTime": ["170450.135000", "170452.467500", "170454.802500", "170457.135000", "170459.470000", "170501.805000", "170504.137500", "170506.472500", "170508.805000", "170511.140000", "170513.475000", "170515.807500", "170518.142500", "170520.475000", "170522.810000", "170525.145000", "170527.477500", "170529.812500", "170532.145000", "170534.480000", "170536.815000", "170539.147500", "170541.482500", "170543.815000", "170546.150000", "170548.485000", "170550.817500", "170553.152500", "170555.485000", "170557.820000", "170600.155000", "170602.487500", "170604.822500", "170607.155000", "170609.490000", "170611.825000", "170614.157500", "170616.492500", "170618.825000", "170621.160000", "170623.495000", "170625.827500", "170628.162500", "170630.495000", "170632.830000", "170635.165000", "170637.497500", "170639.832500", "170642.165000", "170644.500000", "170646.835000", "170649.167500", "170651.502500", "170653.835000", "170656.170000", "170658.505000", "170700.837500", "170703.172500", "170705.505000", "170707.840000", "170710.175000", "170712.507500", "170714.842500", "170717.175000", "170719.510000", "170721.845000", "170724.177500", "170726.512500", "170728.845000", "170731.180000", "170733.515000", "170735.847500", "170738.182500", "170740.515000", "170742.850000", "170745.185000", "170747.517500", "170749.852500", "170752.185000", "170754.520000", "170756.855000", "170759.187500", "170801.522500", "170803.855000", "170806.190000", "170808.525000", "170810.857500", "170813.192500", "170815.525000", "170817.860000", "170820.195000", "170822.527500", "170824.862500", "170827.195000", "170829.530000", "170831.865000", "170834.197500", "170836.532500", "170838.865000"],
      "ContentTime": ["170551.427000", "170551.431000", "170551.434000", "170551.437000", "170551.440000", "170551.443000", "170551.446000", "170551.449000", "170551.452000", "170551.456000", "170551.459000", "170551.462000", "170551.465000", "170551.468000", "170551.480000", "170551.490000", "170551.493000", "170551.496000", "170551.500000", "170551.503000", "170551.506000", "170551.522000", "170551.526000", "170551.529000", "170551.532000", "170551.535000", "170651.394000", "170651.398000", "170651.401000", "170651.404000", "170651.407000", "170651.410000", "170651.413000", "170651.416000", "170651.425000", "170651.428000", "170651.431000", "170651.434000", "170651.437000", "170651.440000", "170651.444000", "170651.447000", "170651.450000", "170651.453000", "170651.456000", "170651.459000", "170651.462000", "170651.465000", "170651.469000", "170651.472000", "170651.475000", "170751.394000", "170751.397000", "170751.401000", "170751.404000", "170751.407000", "170751.416000", "170751.419000", "170751.422000", "170751.425000", "170751.429000", "170751.432000", "170751.435000", "170751.438000", "170751.441000", "170751.444000", "170751.447000", "170751.450000", "170751.453000", "170751.457000", "170751.460000", "170751.463000", "170751.466000", "170751.469000", "170751.472000", "170751.475000", "170751.478000", "170843.847000", "170843.853000", "170843.857000", "170843.860000", "170843.863000", "170843.866000", "170843.869000", "170843.872000", "170843.876000", "170843.879000", "170843.882000", "170843.885000", "170843.889000", "170843.892000", "170843.895000", "170843.898000", "170843.901000", "170843.905000", "170843.908000", "170843.911000", "170843.914000", "170843.918000"],
      "InstanceCreationTime": ["170551.427000", "170551.431000", "170551.434000", "170551.437000", "170551.440000", "170551.443000", "170551.446000", "170551.449000", "170551.452000", "170551.456000", "170551.459000", "170551.462000", "170551.465000", "170551.468000", "170551.480000", "170551.490000", "170551.493000", "170551.496000", "170551.500000", "170551.503000", "170551.506000", "170551.522000", "170551.526000", "170551.529000", "170551.532000", "170551.535000", "170651.394000", "170651.398000", "170651.401000", "170651.404000", "170651.407000", "170651.410000", "170651.413000", "170651.416000", "170651.425000", "170651.428000", "170651.431000", "170651.434000", "170651.437000", "170651.440000", "170651.444000", "170651.447000", "170651.450000", "170651.453000", "170651.456000", "170651.459000", "170651.462000", "170651.465000", "170651.469000", "170651.472000", "170651.475000", "170751.394000", "170751.397000", "170751.401000", "170751.404000", "170751.407000", "170751.416000", "170751.419000", "170751.422000", "170751.425000", "170751.429000", "170751.432000", "170751.435000", "170751.438000", "170751.441000", "170751.444000", "170751.447000", "170751.450000", "170751.453000", "170751.457000", "170751.460000", "170751.463000", "170751.466000", "170751.469000", "170751.472000", "170751.475000", "170751.478000", "170843.847000", "170843.853000", "170843.857000", "170843.860000", "170843.863000", "170843.866000", "170843.869000", "170843.872000", "170843.876000", "170843.879000", "170843.882000", "170843.885000", "170843.889000", "170843.892000", "170843.895000", "170843.898000", "170843.901000", "170843.905000", "170843.908000", "170843.911000", "170843.914000", "170843.918000"],
      "InstanceNumber": [1, 2, 3, 4, 5, 6, 7, 8, 9, 10, 11, 12, 13, 14, 15, 16, 17, 18, 19, 20, 21, 22, 23, 24, 25, 26, 27, 28, 29, 30, 31, 32, 33, 34, 35, 36, 37, 38, 39, 40, 41, 42, 43, 44, 45, 46, 47, 48, 49, 50, 51, 52, 53, 54, 55, 56, 57, 58, 59, 60, 61, 62, 63, 64, 65, 66, 67, 68, 69, 70, 71, 72, 73, 74, 75, 76, 77, 78, 79, 80, 81, 82, 83, 84, 85, 86, 87, 88, 89, 90, 91, 92, 93, 94, 95, 96, 97, 98, 99],
      "LargestImagePixelValue": [34031, 32743, 9721, 4206, 12394, 5378, 10235, 4500, 10164, 4827, 10774, 4564, 10468, 4679, 10091, 5567, 10662, 31830, 4988, 9682, 4527, 9571, 6133, 10091, 4533, 9598, 4980, 11311, 4820, 9196, 4829, 11470, 5550, 30553, 10083, 4394, 9476, 4754, 9337, 4606, 10613, 4424, 8757, 4927, 9867, 4709, 10830, 4916, 10976, 29732, 5858, 8843, 4451, 10029, 5485, 9966, 4827, 9748, 4545, 10624, 5125, 9925, 4297, 9775, 5735, 30429, 10359, 4646, 9551, 4247, 11027, 6319, 10301, 4970, 10220, 4677, 9313, 4389, 9289, 4843, 9506, 29838, 4590, 10178, 4504, 11297, 4470, 9616, 4153, 10026, 4829, 10698, 4147, 10276, 5256, 9717, 5417, 10182, 4887],
      "SequenceName": [
 "ep_b5#1",
 "ep_b5#1",
 "ep_b1490#2",
 "ep_b2990#3",
 "ep_b1495#4",
 "ep_b3005#5",
 "ep_b1500#6",
 "ep_b2990#7",
 "ep_b1495#8",
 "ep_b3005#9",
 "ep_b1490#10",
 "ep_b2995#11",
 "ep_b1490#12",
 "ep_b2990#13",
 "ep_b1500#14",
 "ep_b2985#15",
 "ep_b1500#16",
 "ep_b5#17",
 "ep_b3005#18",
 "ep_b1490#19",
 "ep_b2995#20",
 "ep_b1500#21",
 "ep_b3000#22",
 "ep_b1495#23",
 "ep_b3005#24",
 "ep_b1490#25",
 "ep_b2985#26",
 "ep_b1505#27",
 "ep_b2995#28",
 "ep_b1500#29",
 "ep_b3000#30",
 "ep_b1490#31",
 "ep_b3000#32",
 "ep_b5#33",
 "ep_b1505#34",
 "ep_b3000#35",
 "ep_b1495#36",
 "ep_b2985#37",
 "ep_b1495#38",
 "ep_b2995#39",
 "ep_b1500#40",
 "ep_b2995#41",
 "ep_b1500#42",
 "ep_b2990#43",
 "ep_b1495#44",
 "ep_b2995#45",
 "ep_b1495#46",
 "ep_b3000#47",
 "ep_b1490#48",
 "ep_b5#49",
 "ep_b3005#50",
 "ep_b1500#51",
 "ep_b2990#52",
 "ep_b1505#53",
 "ep_b2995#54",
 "ep_b1495#55",
 "ep_b2990#56",
 "ep_b1490#57",
 "ep_b2995#58",
 "ep_b1500#59",
 "ep_b3000#60",
 "ep_b1500#61",
 "ep_b2985#62",
 "ep_b1500#63",
 "ep_b2990#64",
 "ep_b5#65",
 "ep_b1505#66",
 "ep_b3005#67",
 "ep_b1495#68",
 "ep_b3000#69",
 "ep_b1505#70",
 "ep_b3005#71",
 "ep_b1500#72",
 "ep_b3000#73",
 "ep_b1495#74",
 "ep_b2995#75",
 "ep_b1495#76",
 "ep_b2995#77",
 "ep_b1500#78",
 "ep_b3000#79",
 "ep_b1495#80",
 "ep_b5#81",
 "ep_b2990#82",
 "ep_b1500#83",
 "ep_b2985#84",
 "ep_b1495#85",
 "ep_b2995#86",
 "ep_b1495#87",
 "ep_b2995#88",
 "ep_b1490#89",
 "ep_b2985#90",
 "ep_b1500#91",
 "ep_b3000#92",
 "ep_b1490#93",
 "ep_b3005#94",
 "ep_b1495#95",
 "ep_b2990#96",
 "ep_b1500#97",
 "ep_b3000#98"
],
      "TriggerTime": [13295.0, 15630.0, 17965.0, 20297.5, 22632.5, 24965.0, 27300.0, 29635.0, 31967.5, 34302.5, 36635.0, 38970.0, 41305.0, 43637.5, 45972.5, 48305.0, 50640.0, 52975.0, 55307.5, 57642.5, 59975.0, 62310.0, 64645.0, 66977.5, 69312.5, 71645.0, 73980.0, 76315.0, 78647.5, 80982.5, 83315.0, 85650.0, 87985.0, 90317.5, 92652.5, 94985.0, 97320.0, 99655.0, 101987.5, 104322.5, 106655.0, 108990.0, 111325.0, 113657.5, 115992.5, 118325.0, 120660.0, 122995.0, 125327.5, 127662.5, 129995.0, 132330.0, 134665.0, 136997.5, 139332.5, 141665.0, 144000.0, 146335.0, 148667.5, 151002.5, 153335.0, 155670.0, 158005.0, 160337.5, 162672.5, 165005.0, 167340.0, 169675.0, 172007.5, 174342.5, 176675.0, 179010.0, 181345.0, 183677.5, 186012.5, 188345.0, 190680.0, 193015.0, 195347.5, 197682.5, 200015.0, 202350.0, 204685.0, 207017.5, 209352.5, 211685.0, 214020.0, 216355.0, 218687.5, 221022.5, 223355.0, 225690.0, 228025.0, 230357.5, 232692.5, 235025.0, 237360.0, 239695.0, 242027.5],
      "WindowCenter": [6767.0, 6783.0, 2606.0, 1535.0, 2711.0, 1612.0, 2681.0, 1516.0, 2615.0, 1534.0, 2630.0, 1564.0, 2698.0, 1545.0, 2645.0, 1576.0, 2630.0, 6718.0, 1581.0, 2636.0, 1562.0, 2660.0, 1602.0, 2604.0, 1566.0, 2613.0, 1550.0, 2683.0, 1548.0, 2658.0, 1543.0, 2682.0, 1612.0, 6693.0, 2655.0, 1516.0, 2591.0, 1538.0, 2641.0, 1595.0, 2671.0, 1529.0, 2606.0, 1571.0, 2602.0, 1551.0, 2628.0, 1546.0, 2669.0, 6727.0, 1596.0, 2672.0, 1536.0, 2611.0, 1589.0, 2641.0, 1592.0, 2656.0, 1526.0, 2646.0, 1538.0, 2629.0, 1513.0, 2697.0, 1619.0, 6697.0, 2658.0, 1571.0, 2642.0, 1564.0, 2670.0, 1624.0, 2670.0, 1549.0, 2629.0, 1542.0, 2620.0, 1578.0, 2663.0, 1541.0, 2642.0, 6726.0, 1544.0, 2619.0, 1539.0, 2698.0, 1520.0, 2604.0, 1550.0, 2613.0, 1555.0, 2643.0, 1553.0, 2709.0, 1571.0, 2643.0, 1574.0, 2640.0, 1589.0],
      "WindowWidth": [14574.0, 14614.0, 6203.0, 3980.0, 6410.0, 4124.0, 6351.0, 3939.0, 6224.0, 3957.0, 6243.0, 4044.0, 6380.0, 4003.0, 6286.0, 4070.0, 6253.0, 14468.0, 4062.0, 6270.0, 4036.0, 6311.0, 4123.0, 6201.0, 4051.0, 6209.0, 3987.0, 6348.0, 4018.0, 6312.0, 3991.0, 6351.0, 4126.0, 14417.0, 6296.0, 3941.0, 6171.0, 3963.0, 6264.0, 4115.0, 6328.0, 3966.0, 6211.0, 4045.0, 6196.0, 3992.0, 6244.0, 4015.0, 6322.0, 14484.0, 4090.0, 6336.0, 3991.0, 6215.0, 4101.0, 6272.0, 4096.0, 6296.0, 3954.0, 6290.0, 3979.0, 6251.0, 3919.0, 6382.0, 4160.0, 14422.0, 6301.0, 4054.0, 6283.0, 4043.0, 6327.0, 4153.0, 6332.0, 3985.0, 6247.0, 4000.0, 6233.0, 4075.0, 6324.0, 3989.0, 6268.0, 14479.0, 3991.0, 6235.0, 3969.0, 6375.0, 3954.0, 6196.0, 4016.0, 6209.0, 4002.0, 6278.0, 4032.0, 6406.0, 4051.0, 6282.0, 4067.0, 6269.0, 4086.0]
    },
    "slices": {}
  }
}