{
  "AcquisitionMatrixPE": 110,
  "AcquisitionNumber": 1,
  "AcquisitionTime": "17:17:12.850000",
  "BandwidthPerPixelPhaseEncode": 12.987,
  "BaseResolution": 110,
  "BodyPartExamined": "BRAIN",
  "CoilCombinationMethod": "Sum of Squares",
  "ConsistencyInfo": "N4_VE11C_LATEST_20160120",
  "ConversionSoftware": "dcm2niix",
  "ConversionSoftwareVersion": "v1.0.20211006",
  "DerivedVendorReportedEchoSpacing": 0.000700001,
  "DeviceSerialNumber": "167006",
  "DiffusionScheme": "Monopolar",
  "DwellTime": 2.7e-06,
  "EchoTime": 0.0816,
  "EchoTrainLength": 83,
  "EffectiveEchoSpacing": 0.000700001,
  "FlipAngle": 78,
  "HeudiconvVersion": "0.5.3.post569+g418601f",
  "ImageComments": "Unaliased MB3/PE3/LB SENSE1",
  "ImageOrientationPatientDICOM": [1, 0, 0, 0, 0.978148, -0.207912],
  "ImageOrientationText": "Tra>Cor(-12.0)",
  "ImageType": [
    "ORIGINAL",
    "PRIMARY",
    "DIFFUSION",
    "NONE",
    "MB",
    "ND",
    "MOSAIC"
],
  "ImagingFrequency": 123.259,
  "InPlanePhaseEncodingDirectionDICOM": "COL",
  "InstitutionAddress": "Chemin Queen-Mary 4565,Montreal,District,CA,H3W 1W5",
  "InstitutionName": "IUGM",
  "InstitutionalDepartmentName": "Department",
  "MRAcquisitionType": "2D",
  "MagneticFieldStrength": 3,
  "Manufacturer": "Siemens",
  "ManufacturersModelName": "Prisma_fit",
  "MatrixCoilMode": "SENSE",
  "Modality": "MR",
  "MultibandAccelerationFactor": 3,
  "PartialFourier": 0.75,
  "PatientPosition": "HFS",
  "PercentPhaseFOV": 100,
  "PercentSampling": 100,
  "PhaseEncodingDirection": "j-",
  "PhaseEncodingSteps": 83,
  "PhaseResolution": 1,
  "PixelBandwidth": 1685,
  "ProcedureStepDescription": "anat^generic",
  "ProtocolName": "dMRI_dir98_PA_test_cmrr",
  "PulseSequenceDetails": "%CustomerSeq%\\cmrr_mbep2d_diff",
  "ReceiveCoilActiveElements": "HC1-6",
  "ReceiveCoilName": "HeadNeck_64",
  "ReconMatrixPE": 110,
  "RepetitionTime": 2.334,
  "SAR": 0.115216,
  "ScanOptions": "PFP\\EXT",
  "ScanningSequence": "EP",
  "SequenceName": "ep_b5#1",
  "SequenceVariant": "SK\\SS",
  "SeriesDescription": "dMRI_dir98_PA_test_cmrr",
  "SeriesNumber": 16,
  "ShimSetting": [626, -7200, -8760, 598, 27, 73, 86, -12],
  "SliceThickness": 2,
  "SliceTiming": [0, 1.2175, 0.1225, 1.34, 0.2425, 1.46, 0.365, 1.5825, 0.4875, 1.705, 0.6075, 1.8275, 0.73, 1.9475, 0.8525, 2.07, 0.975, 2.1925, 1.095, 0, 1.2175, 0.1225, 1.34, 0.2425, 1.46, 0.365, 1.5825, 0.4875, 1.705, 0.6075, 1.8275, 0.73, 1.9475, 0.8525, 2.07, 0.975, 2.1925, 1.095, 0, 1.2175, 0.1225, 1.34, 0.2425, 1.46, 0.365, 1.5825, 0.4875, 1.705, 0.6075, 1.8275, 0.73, 1.9475, 0.8525, 2.07, 0.975, 2.1925, 1.095],
  "SoftwareVersions": "syngo MR E11",
  "SpacingBetweenSlices": 2,
  "StationName": "MRC35049",
  "TotalReadoutTime": 0.0763001,
  "TxRefAmp": 207.381,
  "WipMemBlock": "b8f197e1-c79f-4fe8-b6ce-40dfa437d503||Sequence: R016 ve11c/master r/e634e98; Dec 19 2017 11:11:25 by eja",
  "dcmmeta_affine": [
    [-2.0, 0.0, 0.0, 111.52603149414062],
    [0.0, 1.9562952518463135, -0.415823370218277, -84.26680755615234],
    [0.0, 0.415823370218277, 1.956295132637024, -30.363338470458984],
    [0.0, 0.0, 0.0, 1.0]
],
  "dcmmeta_reorient_transform": [
    [0.0, -1.0, 0.0, 109.0],
    [1.0, 0.0, 0.0, 0.0],
    [0.0, 0.0, 1.0, 0.0],
    [0.0, 0.0, 0.0, 1.0]
],
  "dcmmeta_shape": [110, 110, 57, 99],
  "dcmmeta_slice_dim": 2,
  "dcmmeta_version": 0.6,
  "global": {
    "const": {
      "AcquisitionMatrix": [110, 0, 0, 110],
      "AngioFlag": "N",
      "BitsAllocated": 16,
      "BitsStored": 16,
      "BodyPartExamined": "BRAIN",
      "CardiacNumberOfImages": 1,
      "Columns": 880,
      "EchoNumbers": 1,
      "EchoTime": 81.6,
      "EchoTrainLength": 83,
      "FlipAngle": 78.0,
      "HighBit": 15,
      "ImageOrientationPatient": [1.0, 0.0, 0.0, 0.0, 0.97814760155, -0.2079116869779],
      "ImagePositionPatient": [-881.52603316307, -882.14302588439, 175.05340907515],
      "ImageType": [
        "ORIGINAL",
        "PRIMARY",
        "DIFFUSION",
        "NONE",
        "MB",
        "ND",
        "MOSAIC"
],
      "ImagedNucleus": "1H",
      "ImagingFrequency": 123.258959,
      "InPlanePhaseEncodingDirection": "COL",
      "MRAcquisitionType": "2D",
      "MagneticFieldStrength": 3.0,
      "Manufacturer": "SIEMENS",
      "ManufacturerModelName": "Prisma_fit",
      "Modality": "MR",
      "NominalInterval": 0,
      "NumberOfAverages": 1.0,
      "NumberOfPhaseEncodingSteps": 83,
      "PercentPhaseFieldOfView": 100.0,
      "PercentSampling": 100.0,
      "PerformedProcedureStepStartTime": "163613.603000",
      "PhotometricInterpretation": "MONOCHROME2",
      "PixelBandwidth": 1685.0,
      "PixelRepresentation": 0,
      "PixelSpacing": [2.0, 2.0],
      "ProtocolName": "dMRI_dir98_PA_test_cmrr",
      "RepetitionTime": 2334.0,
      "Rows": 880,
      "SAR": 0.11521554718279,
      "SamplesPerPixel": 1,
      "ScanOptions": [
        "PFP",
        "EXT"
],
      "ScanningSequence": "EP",
      "SequenceVariant": [
        "SK",
        "SS"
],
      "SeriesDescription": "dMRI_dir98_PA_test_cmrr",
      "SeriesNumber": 16,
      "SeriesTime": "171804.083000",
      "SliceLocation": -12.179772437394,
      "SliceThickness": 2.0,
      "SmallestImagePixelValue": 0,
      "SoftwareVersions": "syngo MR E11",
      "SpacingBetweenSlices": 1.9999999627301,
      "SpecificCharacterSet": "ISO_IR 100",
      "StudyID": "1",
      "StudyTime": "163613.489000",
      "TransmitCoilName": "Body",
      "VariableFlipAngleFlag": "N",
      "WindowCenterWidthExplanation": "Algo1",
      "dBdt": 0.0},
    "slices": {}
  },
  "time": {
    "samples": {
      "AcquisitionNumber": [1, 2, 3, 4, 5, 6, 7, 8, 9, 10, 11, 12, 13, 14, 15, 16, 17, 18, 19, 20, 21, 22, 23, 24, 25, 26, 27, 28, 29, 30, 31, 32, 33, 34, 35, 36, 37, 38, 39, 40, 41, 42, 43, 44, 45, 46, 47, 48, 49, 50, 51, 52, 53, 54, 55, 56, 57, 58, 59, 60, 61, 62, 63, 64, 65, 66, 67, 68, 69, 70, 71, 72, 73, 74, 75, 76, 77, 78, 79, 80, 81, 82, 83, 84, 85, 86, 87, 88, 89, 90, 91, 92, 93, 94, 95, 96, 97, 98, 99],
      "AcquisitionTime": ["171712.850000", "171715.182500", "171717.517500", "171719.852500", "171722.185000", "171724.520000", "171726.852500", "171729.187500", "171731.522500", "171733.855000", "171736.190000", "171738.522500", "171740.857500", "171743.192500", "171745.525000", "171747.860000", "171750.192500", "171752.527500", "171754.862500", "171757.195000", "171759.530000", "171801.862500", "171804.197500", "171806.532500", "171808.865000", "171811.200000", "171813.532500", "171815.867500", "171818.202500", "171820.535000", "171822.870000", "171825.202500", "171827.537500", "171829.872500", "171832.205000", "171834.540000", "171836.872500", "171839.207500", "171841.542500", "171843.875000", "171846.210000", "171848.542500", "171850.877500", "171853.212500", "171855.545000", "171857.880000", "171900.212500", "171902.547500", "171904.882500", "171907.215000", "171909.550000", "171911.882500", "171914.217500", "171916.552500", "171918.885000", "171921.220000", "171923.552500", "171925.887500", "171928.222500", "171930.555000", "171932.890000", "171935.222500", "171937.557500", "171939.892500", "171942.225000", "171944.560000", "171946.892500", "171949.227500", "171951.562500", "171953.895000", "171956.230000", "171958.562500", "172000.897500", "172003.232500", "172005.565000", "172007.900000", "172010.232500", "172012.567500", "172014.902500", "172017.235000", "172019.570000", "172021.902500", "172024.237500", "172026.572500", "172028.905000", "172031.240000", "172033.572500", "172035.907500", "172038.242500", "172040.575000", "172042.910000", "172045.242500", "172047.577500", "172049.912500", "172052.245000", "172054.580000", "172056.912500", "172059.247500", "172101.582500"],
      "ContentTime": ["171804.087000", "171804.091000", "171804.095000", "171804.098000", "171804.108000", "171804.112000", "171804.115000", "171804.120000", "171804.123000", "171804.126000", "171804.129000", "171804.133000", "171804.136000", "171804.140000", "171804.143000", "171804.146000", "171804.149000", "171804.152000", "171804.156000", "171804.166000", "171804.170000", "171904.048000", "171904.051000", "171904.055000", "171904.058000", "171904.061000", "171904.064000", "171904.067000", "171904.071000", "171904.074000", "171904.077000", "171904.084000", "171904.087000", "171904.090000", "171904.094000", "171904.097000", "171904.100000", "171904.103000", "171904.106000", "171904.109000", "171904.113000", "171904.116000", "171904.119000", "171904.122000", "171904.125000", "171904.128000", "171904.132000", "172004.048000", "172004.052000", "172004.055000", "172004.058000", "172004.061000", "172004.064000", "172004.068000", "172004.071000", "172004.074000", "172004.077000", "172004.080000", "172004.092000", "172004.095000", "172004.098000", "172004.101000", "172004.104000", "172004.107000", "172004.110000", "172004.114000", "172004.117000", "172004.120000", "172004.123000", "172004.126000", "172004.129000", "172004.133000", "172004.136000", "172104.048000", "172104.052000", "172104.055000", "172104.058000", "172104.061000", "172104.064000", "172104.067000", "172104.070000", "172104.074000", "172104.077000", "172104.080000", "172104.083000", "172104.086000", "172104.089000", "172104.092000", "172104.095000", "172104.098000", "172104.101000", "172104.105000", "172104.108000", "172104.111000", "172104.128000", "172104.131000", "172104.134000", "172104.137000", "172106.419000"],
      "InstanceCreationTime": ["171804.087000", "171804.091000", "171804.095000", "171804.098000", "171804.108000", "171804.112000", "171804.115000", "171804.120000", "171804.123000", "171804.126000", "171804.129000", "171804.133000", "171804.136000", "171804.140000", "171804.143000", "171804.146000", "171804.149000", "171804.152000", "171804.156000", "171804.166000", "171804.170000", "171904.048000", "171904.051000", "171904.055000", "171904.058000", "171904.061000", "171904.064000", "171904.067000", "171904.071000", "171904.074000", "171904.077000", "171904.084000", "171904.087000", "171904.090000", "171904.094000", "171904.097000", "171904.100000", "171904.103000", "171904.106000", "171904.109000", "171904.113000", "171904.116000", "171904.119000", "171904.122000", "171904.125000", "171904.128000", "171904.132000", "172004.048000", "172004.052000", "172004.055000", "172004.058000", "172004.061000", "172004.064000", "172004.068000", "172004.071000", "172004.074000", "172004.077000", "172004.080000", "172004.092000", "172004.095000", "172004.098000", "172004.101000", "172004.104000", "172004.107000", "172004.110000", "172004.114000", "172004.117000", "172004.120000", "172004.123000", "172004.126000", "172004.129000", "172004.133000", "172004.136000", "172104.048000", "172104.052000", "172104.055000", "172104.058000", "172104.061000", "172104.064000", "172104.067000", "172104.070000", "172104.074000", "172104.077000", "172104.080000", "172104.083000", "172104.086000", "172104.089000", "172104.092000", "172104.095000", "172104.098000", "172104.101000", "172104.105000", "172104.108000", "172104.111000", "172104.128000", "172104.131000", "172104.134000", "172104.137000", "172106.419000"],
      "InstanceNumber": [1, 2, 3, 4, 5, 6, 7, 8, 9, 10, 11, 12, 13, 14, 15, 16, 17, 18, 19, 20, 21, 22, 23, 24, 25, 26, 27, 28, 29, 30, 31, 32, 33, 34, 35, 36, 37, 38, 39, 40, 41, 42, 43, 44, 45, 46, 47, 48, 49, 50, 51, 52, 53, 54, 55, 56, 57, 58, 59, 60, 61, 62, 63, 64, 65, 66, 67, 68, 69, 70, 71, 72, 73, 74, 75, 76, 77, 78, 79, 80, 81, 82, 83, 84, 85, 86, 87, 88, 89, 90, 91, 92, 93, 94, 95, 96, 97, 98, 99],
      "LargestImagePixelValue": [30813, 30664, 9317, 4060, 11604, 5234, 9898, 4481, 9493, 4491, 10687, 4519, 10572, 4487, 9916, 5690, 10210, 31057, 5040, 9652, 4418, 9914, 5922, 9434, 4468, 9637, 4735, 11360, 4725, 8918, 4885, 11404, 5531, 33746, 10192, 4484, 9251, 4643, 9082, 4283, 10718, 4253, 10048, 4745, 9301, 4844, 10123, 4901, 11446, 29539, 5527, 9233, 4132, 10484, 5438, 9505, 4984, 10275, 4821, 11090, 5233, 10081, 4273, 10332, 5342, 30939, 11098, 4610, 9301, 4549, 11551, 6360, 10473, 4763, 9823, 4640, 9433, 3974, 9661, 4349, 9353, 32582, 4960, 10609, 4393, 11232, 4760, 9463, 4300, 10367, 4742, 11110, 4237, 10987, 5581, 10184, 5110, 9778, 5106],
      "SequenceName": [
 "ep_b5#1",
 "ep_b5#1",
 "ep_b1490#2",
 "ep_b2990#3",
 "ep_b1495#4",
 "ep_b3005#5",
 "ep_b1500#6",
 "ep_b2990#7",
 "ep_b1495#8",
 "ep_b3005#9",
 "ep_b1490#10",
 "ep_b2995#11",
 "ep_b1490#12",
 "ep_b2990#13",
 "ep_b1500#14",
 "ep_b2985#15",
 "ep_b1500#16",
 "ep_b5#17",
 "ep_b3005#18",
 "ep_b1490#19",
 "ep_b2995#20",
 "ep_b1500#21",
 "ep_b3000#22",
 "ep_b1495#23",
 "ep_b3005#24",
 "ep_b1490#25",
 "ep_b2985#26",
 "ep_b1505#27",
 "ep_b2995#28",
 "ep_b1500#29",
 "ep_b3000#30",
 "ep_b1490#31",
 "ep_b3000#32",
 "ep_b5#33",
 "ep_b1505#34",
 "ep_b3000#35",
 "ep_b1495#36",
 "ep_b2985#37",
 "ep_b1495#38",
 "ep_b2995#39",
 "ep_b1500#40",
 "ep_b2995#41",
 "ep_b1500#42",
 "ep_b2990#43",
 "ep_b1495#44",
 "ep_b2995#45",
 "ep_b1495#46",
 "ep_b3000#47",
 "ep_b1490#48",
 "ep_b5#49",
 "ep_b3005#50",
 "ep_b1500#51",
 "ep_b2990#52",
 "ep_b1505#53",
 "ep_b2995#54",
 "ep_b1495#55",
 "ep_b2990#56",
 "ep_b1490#57",
 "ep_b2995#58",
 "ep_b1500#59",
 "ep_b3000#60",
 "ep_b1500#61",
 "ep_b2985#62",
 "ep_b1500#63",
 "ep_b2990#64",
 "ep_b5#65",
 "ep_b1505#66",
 "ep_b3005#67",
 "ep_b1495#68",
 "ep_b3000#69",
 "ep_b1505#70",
 "ep_b3005#71",
 "ep_b1500#72",
 "ep_b3000#73",
 "ep_b1495#74",
 "ep_b2995#75",
 "ep_b1495#76",
 "ep_b2995#77",
 "ep_b1500#78",
 "ep_b3000#79",
 "ep_b1495#80",
 "ep_b5#81",
 "ep_b2990#82",
 "ep_b1500#83",
 "ep_b2985#84",
 "ep_b1495#85",
 "ep_b2995#86",
 "ep_b1495#87",
 "ep_b2995#88",
 "ep_b1490#89",
 "ep_b2985#90",
 "ep_b1500#91",
 "ep_b3000#92",
 "ep_b1490#93",
 "ep_b3005#94",
 "ep_b1495#95",
 "ep_b2990#96",
 "ep_b1500#97",
 "ep_b3000#98"
],
      "TriggerTime": [13297.5, 15630.0, 17965.0, 20300.0, 22632.5, 24967.5, 27300.0, 29635.0, 31970.0, 34302.5, 36637.5, 38970.0, 41305.0, 43640.0, 45972.5, 48307.5, 50640.0, 52975.0, 55310.0, 57642.5, 59977.5, 62310.0, 64645.0, 66980.0, 69312.5, 71647.5, 73980.0, 76315.0, 78650.0, 80982.5, 83317.5, 85650.0, 87985.0, 90320.0, 92652.5, 94987.5, 97320.0, 99655.0, 101990.0, 104322.5, 106657.5, 108990.0, 111325.0, 113660.0, 115992.5, 118327.5, 120660.0, 122995.0, 125330.0, 127662.5, 129997.5, 132330.0, 134665.0, 137000.0, 139332.5, 141667.5, 144000.0, 146335.0, 148670.0, 151002.5, 153337.5, 155670.0, 158005.0, 160340.0, 162672.5, 165007.5, 167340.0, 169675.0, 172010.0, 174342.5, 176677.5, 179010.0, 181345.0, 183680.0, 186012.5, 188347.5, 190680.0, 193015.0, 195350.0, 197682.5, 200017.5, 202350.0, 204685.0, 207020.0, 209352.5, 211687.5, 214020.0, 216355.0, 218690.0, 221022.5, 223357.5, 225690.0, 228025.0, 230360.0, 232692.5, 235027.5, 237360.0, 239695.0, 242030.0],
      "WindowCenter": [6753.0, 6763.0, 2594.0, 1546.0, 2693.0, 1598.0, 2678.0, 1513.0, 2583.0, 1524.0, 2627.0, 1574.0, 2693.0, 1533.0, 2626.0, 1581.0, 2607.0, 6676.0, 1569.0, 2630.0, 1557.0, 2666.0, 1601.0, 2581.0, 1564.0, 2613.0, 1535.0, 2684.0, 1545.0, 2640.0, 1539.0, 2668.0, 1598.0, 6695.0, 2647.0, 1514.0, 2565.0, 1537.0, 2625.0, 1572.0, 2667.0, 1517.0, 2622.0, 1570.0, 2585.0, 1553.0, 2608.0, 1547.0, 2667.0, 6674.0, 1581.0, 2671.0, 1521.0, 2621.0, 1587.0, 2626.0, 1599.0, 2654.0, 1538.0, 2640.0, 1536.0, 2626.0, 1497.0, 2691.0, 1602.0, 6679.0, 2664.0, 1560.0, 2626.0, 1571.0, 2666.0, 1609.0, 2665.0, 1536.0, 2609.0, 1543.0, 2615.0, 1553.0, 2662.0, 1530.0, 2637.0, 6675.0, 1582.0, 2611.0, 1527.0, 2692.0, 1528.0, 2598.0, 1545.0, 2610.0, 1538.0, 2637.0, 1555.0, 2703.0, 1566.0, 2641.0, 1560.0, 2623.0, 1601.0],
      "WindowWidth": [14544.0, 14572.0, 6174.0, 4000.0, 6376.0, 4099.0, 6342.0, 3929.0, 6163.0, 3941.0, 6238.0, 4060.0, 6367.0, 3982.0, 6249.0, 4071.0, 6205.0, 14378.0, 4041.0, 6253.0, 4025.0, 6315.0, 4120.0, 6154.0, 4046.0, 6208.0, 3957.0, 6339.0, 4010.0, 6277.0, 3983.0, 6324.0, 4101.0, 14400.0, 6277.0, 3936.0, 6118.0, 3959.0, 6233.0, 4078.0, 6318.0, 3945.0, 6231.0, 4042.0, 6163.0, 3998.0, 6207.0, 4016.0, 6314.0, 14363.0, 4061.0, 6332.0, 3962.0, 6227.0, 4095.0, 6243.0, 4106.0, 6290.0, 3975.0, 6273.0, 3972.0, 6241.0, 3887.0, 6364.0, 4124.0, 14373.0, 6304.0, 4034.0, 6253.0, 4052.0, 6313.0, 4122.0, 6317.0, 3961.0, 6207.0, 4001.0, 6219.0, 4031.0, 6312.0, 3970.0, 6252.0, 14352.0, 4059.0, 6214.0, 3950.0, 6356.0, 3967.0, 6181.0, 4003.0, 6197.0, 3968.0, 6262.0, 4035.0, 6387.0, 4036.0, 6275.0, 4039.0, 6237.0, 4107.0]
    },
    "slices": {}
  }
}