{
  "AcquisitionMatrixPE": 110,
  "AcquisitionNumber": 1,
  "AcquisitionTime": "11:05:57.847500",
  "BandwidthPerPixelPhaseEncode": 12.987,
  "BaseResolution": 110,
  "BodyPartExamined": "BRAIN",
  "CoilCombinationMethod": "Sum of Squares",
  "ConsistencyInfo": "N4_VE11C_LATEST_20160120",
  "ConversionSoftware": "dcm2niix",
  "ConversionSoftwareVersion": "v1.0.20211006",
  "DerivedVendorReportedEchoSpacing": 0.000700001,
  "DeviceSerialNumber": "167006",
  "DiffusionScheme": "Monopolar",
  "DwellTime": 2.7e-06,
  "EchoTime": 0.0768,
  "EchoTrainLength": 83,
  "EffectiveEchoSpacing": 0.000700001,
  "FlipAngle": 78,
  "HeudiconvVersion": "0.5.3.post569+g418601f",
  "ImageComments": "Unaliased MB3/PE3/LB SENSE1+",
  "ImageOrientationPatientDICOM": [0.99863, 0.0500491, -0.0153015, -0.052336, 0.954994, -0.291971],
  "ImageOrientationText": "Tra>Cor(-17.0)",
  "ImageType": [
    "ORIGINAL",
    "PRIMARY",
    "DIFFUSION",
    "NONE",
    "MB",
    "ND",
    "MOSAIC"
],
  "ImagingFrequency": 123.259,
  "InPlanePhaseEncodingDirectionDICOM": "COL",
  "InstitutionAddress": "Chemin Queen-Mary 4565,Montreal,District,CA,H3W 1W5",
  "InstitutionName": "IUGM",
  "InstitutionalDepartmentName": "Department",
  "MRAcquisitionType": "2D",
  "MagneticFieldStrength": 3,
  "Manufacturer": "Siemens",
  "ManufacturersModelName": "Prisma_fit",
  "MatrixCoilMode": "SENSE",
  "Modality": "MR",
  "MultibandAccelerationFactor": 3,
  "PartialFourier": 0.75,
  "PatientPosition": "HFS",
  "PercentPhaseFOV": 100,
  "PercentSampling": 100,
  "PhaseEncodingDirection": "j",
  "PhaseEncodingSteps": 83,
  "PhaseResolution": 1,
  "PixelBandwidth": 1685,
  "ProcedureStepDescription": "anat^generic",
  "ProtocolName": "dMRI_dir106_PA_test_cmrr",
  "PulseSequenceDetails": "%CustomerSeq%\\cmrr_mbep2d_diff",
  "ReceiveCoilActiveElements": "HC1-6",
  "ReceiveCoilName": "HeadNeck_64",
  "ReconMatrixPE": 110,
  "RepetitionTime": 2.243,
  "SAR": 0.136434,
  "ScanOptions": "PFP\\EXT",
  "ScanningSequence": "EP",
  "SequenceName": "ep_b0",
  "SequenceVariant": "SK\\SS",
  "SeriesDescription": "dMRI_dir106_PA_test_cmrr",
  "SeriesNumber": 14,
  "ShimSetting": [629, -7205, -8828, 598, 114, -31, -44, 10],
  "SliceThickness": 2,
  "SliceTiming": [0, 1.17, 0.1175, 1.2875, 0.2325, 1.4025, 0.35, 1.52, 0.4675, 1.6375, 0.585, 1.755, 0.7025, 1.8725, 0.8175, 1.9875, 0.935, 2.105, 1.0525, 0, 1.17, 0.1175, 1.2875, 0.2325, 1.4025, 0.35, 1.52, 0.4675, 1.6375, 0.585, 1.755, 0.7025, 1.8725, 0.8175, 1.9875, 0.935, 2.105, 1.0525, 0, 1.17, 0.1175, 1.2875, 0.2325, 1.4025, 0.35, 1.52, 0.4675, 1.6375, 0.585, 1.755, 0.7025, 1.8725, 0.8175, 1.9875, 0.935, 2.105, 1.0525],
  "SoftwareVersions": "syngo MR E11",
  "SpacingBetweenSlices": 2,
  "StationName": "MRC35049",
  "TotalReadoutTime": 0.0763001,
  "TxRefAmp": 245.72,
  "WipMemBlock": "325ef801-9a11-4713-853e-de906b856a6f||Sequence: R017 ve11c/master r/75a17815+; Jun 28 2022 16:41:33 by eja",
  "dcmmeta_affine": [
    [-1.9972590208053589, -0.1046719178557396, 1.142037664436657e-08, 116.38774108886719],
    [-0.10009825229644775, 1.9099884033203125, -0.5847434401512146, -72.5497817993164],
    [-0.03060309588909149, 0.5839420557022095, 1.9126094579696655, -50.747947692871094],
    [0.0, 0.0, 0.0, 1.0]
],
  "dcmmeta_reorient_transform": [
    [0.0, -1.0, 0.0, 109.0],
    [1.0, 0.0, 0.0, 0.0],
    [0.0, 0.0, 1.0, 0.0],
    [0.0, 0.0, 0.0, 1.0]
],
  "dcmmeta_shape": [110, 110, 57, 107],
  "dcmmeta_slice_dim": 2,
  "dcmmeta_version": 0.6,
  "global": {
    "const": {
      "AcquisitionMatrix": [110, 0, 0, 110],
      "AngioFlag": "N",
      "BitsAllocated": 16,
      "BitsStored": 16,
      "BodyPartExamined": "BRAIN",
      "CardiacNumberOfImages": 1,
      "Columns": 880,
      "EchoNumbers": 1,
      "EchoTime": 76.8,
      "EchoTrainLength": 83,
      "FlipAngle": 78.0,
      "HighBit": 15,
      "ImageOrientationPatient": [0.99862953464429, 0.05004912753164, -0.015301547943, -0.0523359583473, 0.9549941731287, -0.2919710204012],
      "ImagePositionPatient": [-833.62455215893, -909.52229113505, 249.50161337769],
      "ImageType": [
        "ORIGINAL",
        "PRIMARY",
        "DIFFUSION",
        "NONE",
        "MB",
        "ND",
        "MOSAIC"
],
      "ImagedNucleus": "1H",
      "ImagingFrequency": 123.25881,
      "InPlanePhaseEncodingDirection": "COL",
      "LargestImagePixelValue": 4095,
      "MRAcquisitionType": "2D",
      "MagneticFieldStrength": 3.0,
      "Manufacturer": "SIEMENS",
      "ManufacturerModelName": "Prisma_fit",
      "Modality": "MR",
      "NominalInterval": 0,
      "NumberOfAverages": 1.0,
      "NumberOfPhaseEncodingSteps": 83,
      "PercentPhaseFieldOfView": 100.0,
      "PercentSampling": 100.0,
      "PerformedProcedureStepStartTime": "102813.555000",
      "PhotometricInterpretation": "MONOCHROME2",
      "PixelBandwidth": 1685.0,
      "PixelRepresentation": 0,
      "PixelSpacing": [2.0, 2.0],
      "ProtocolName": "dMRI_dir106_PA_test_cmrr",
      "RepetitionTime": 2243.0,
      "RescaleIntercept": -4096.0,
      "RescaleSlope": 2.0,
      "RescaleType": "US",
      "Rows": 880,
      "SAR": 0.13643429173345,
      "SamplesPerPixel": 1,
      "ScanOptions": [
        "PFP",
        "EXT"
],
      "ScanningSequence": "EP",
      "SequenceVariant": [
        "SK",
        "SS"
],
      "SeriesDescription": "dMRI_dir106_PA_test_cmrr",
      "SeriesNumber": 14,
      "SeriesTime": "110614.629000",
      "SliceLocation": -27.318999164915,
      "SliceThickness": 2.0,
      "SmallestImagePixelValue": 0,
      "SoftwareVersions": "syngo MR E11",
      "SpacingBetweenSlices": 1.9999999987675,
      "SpecificCharacterSet": "ISO_IR 100",
      "StudyID": "1",
      "StudyTime": "102813.473000",
      "TransmitCoilName": "Body",
      "VariableFlipAngleFlag": "N",
      "WindowCenterWidthExplanation": "Algo1",
      "dBdt": 0.0},
    "slices": {}
  },
  "time": {
    "samples": {
      "AcquisitionNumber": [1, 2, 3, 4, 5, 6, 7, 8, 9, 10, 11, 12, 13, 14, 15, 16, 17, 18, 19, 20, 21, 22, 23, 24, 25, 26, 27, 28, 29, 30, 31, 32, 33, 34, 35, 36, 37, 38, 39, 40, 41, 42, 43, 44, 45, 46, 47, 48, 49, 50, 51, 52, 53, 54, 55, 56, 57, 58, 59, 60, 61, 62, 63, 64, 65, 66, 67, 68, 69, 70, 71, 72, 73, 74, 75, 76, 77, 78, 79, 80, 81, 82, 83, 84, 85, 86, 87, 88, 89, 90, 91, 92, 93, 94, 95, 96, 97, 98, 99, 100, 101, 102, 103, 104, 105, 106, 107],
      "AcquisitionTime": ["110557.847500", "110600.090000", "110602.332500", "110604.577500", "110606.820000", "110609.062500", "110611.305000", "110613.547500", "110615.792500", "110618.035000", "110620.277500", "110622.520000", "110624.762500", "110627.007500", "110629.250000", "110631.492500", "110633.735000", "110635.977500", "110638.222500", "110640.465000", "110642.707500", "110644.950000", "110647.192500", "110649.437500", "110651.680000", "110653.922500", "110656.165000", "110658.407500", "110700.652500", "110702.895000", "110705.137500", "110707.380000", "110709.622500", "110711.867500", "110714.110000", "110716.352500", "110718.595000", "110720.837500", "110723.082500", "110725.325000", "110727.567500", "110729.810000", "110732.052500", "110734.297500", "110736.540000", "110738.782500", "110741.025000", "110743.267500", "110745.512500", "110747.755000", "110749.997500", "110752.240000", "110754.482500", "110756.727500", "110758.970000", "110801.212500", "110803.455000", "110805.697500", "110807.942500", "110810.185000", "110812.427500", "110814.670000", "110816.912500", "110819.157500", "110821.400000", "110823.642500", "110825.885000", "110828.127500", "110830.372500", "110832.615000", "110834.857500", "110837.100000", "110839.342500", "110841.587500", "110843.830000", "110846.072500", "110848.315000", "110850.557500", "110852.802500", "110855.045000", "110857.287500", "110859.530000", "110901.772500", "110904.017500", "110906.260000", "110908.502500", "110910.745000", "110912.987500", "110915.232500", "110917.475000", "110919.717500", "110921.960000", "110924.202500", "110926.447500", "110928.690000", "110930.932500", "110933.175000", "110935.417500", "110937.662500", "110939.905000", "110942.147500", "110944.390000", "110946.632500", "110948.877500", "110951.120000", "110953.362500", "110955.605000"],
      "ContentTime": ["110614.631000", "110614.634000", "110614.637000", "110614.641000", "110614.650000", "110614.654000", "110614.657000", "110714.696000", "110714.707000", "110714.711000", "110714.714000", "110714.717000", "110714.720000", "110714.723000", "110714.726000", "110714.729000", "110714.732000", "110714.736000", "110714.739000", "110714.742000", "110714.745000", "110714.748000", "110714.751000", "110714.754000", "110714.757000", "110714.761000", "110714.764000", "110714.767000", "110714.770000", "110714.773000", "110714.776000", "110714.779000", "110714.782000", "110814.670000", "110814.673000", "110814.676000", "110814.680000", "110814.683000", "110814.686000", "110814.689000", "110814.692000", "110814.695000", "110814.698000", "110814.701000", "110814.704000", "110814.708000", "110814.711000", "110814.714000", "110814.717000", "110814.720000", "110814.724000", "110814.727000", "110814.730000", "110814.733000", "110814.737000", "110814.740000", "110814.743000", "110814.746000", "110814.749000", "110814.752000", "110914.668000", "110914.671000", "110914.674000", "110914.678000", "110914.681000", "110914.684000", "110914.687000", "110914.690000", "110914.694000", "110914.697000", "110914.700000", "110914.703000", "110914.706000", "110914.709000", "110914.712000", "110914.716000", "110914.719000", "110914.722000", "110914.725000", "110914.728000", "110914.731000", "110914.734000", "110914.744000", "110914.747000", "110914.750000", "110914.753000", "110914.757000", "111000.515000", "111000.518000", "111000.521000", "111000.524000", "111000.527000", "111000.530000", "111000.534000", "111000.537000", "111000.540000", "111000.543000", "111000.546000", "111000.549000", "111000.553000", "111000.556000", "111000.559000", "111000.562000", "111000.565000", "111000.568000", "111000.571000", "111000.575000"],
      "InstanceCreationTime": ["110614.631000", "110614.634000", "110614.637000", "110614.641000", "110614.650000", "110614.654000", "110614.657000", "110714.696000", "110714.707000", "110714.711000", "110714.714000", "110714.717000", "110714.720000", "110714.723000", "110714.726000", "110714.729000", "110714.732000", "110714.736000", "110714.739000", "110714.742000", "110714.745000", "110714.748000", "110714.751000", "110714.754000", "110714.757000", "110714.761000", "110714.764000", "110714.767000", "110714.770000", "110714.773000", "110714.776000", "110714.779000", "110714.782000", "110814.670000", "110814.673000", "110814.676000", "110814.680000", "110814.683000", "110814.686000", "110814.689000", "110814.692000", "110814.695000", "110814.698000", "110814.701000", "110814.704000", "110814.708000", "110814.711000", "110814.714000", "110814.717000", "110814.720000", "110814.724000", "110814.727000", "110814.730000", "110814.733000", "110814.737000", "110814.740000", "110814.743000", "110814.746000", "110814.749000", "110814.752000", "110914.668000", "110914.671000", "110914.674000", "110914.678000", "110914.681000", "110914.684000", "110914.687000", "110914.690000", "110914.694000", "110914.697000", "110914.700000", "110914.703000", "110914.706000", "110914.709000", "110914.712000", "110914.716000", "110914.719000", "110914.722000", "110914.725000", "110914.728000", "110914.731000", "110914.734000", "110914.744000", "110914.747000", "110914.750000", "110914.753000", "110914.757000", "111000.515000", "111000.518000", "111000.521000", "111000.524000", "111000.527000", "111000.530000", "111000.534000", "111000.537000", "111000.540000", "111000.543000", "111000.546000", "111000.549000", "111000.553000", "111000.556000", "111000.559000", "111000.562000", "111000.565000", "111000.568000", "111000.571000", "111000.575000"],
      "InstanceNumber": [1, 2, 3, 4, 5, 6, 7, 8, 9, 10, 11, 12, 13, 14, 15, 16, 17, 18, 19, 20, 21, 22, 23, 24, 25, 26, 27, 28, 29, 30, 31, 32, 33, 34, 35, 36, 37, 38, 39, 40, 41, 42, 43, 44, 45, 46, 47, 48, 49, 50, 51, 52, 53, 54, 55, 56, 57, 58, 59, 60, 61, 62, 63, 64, 65, 66, 67, 68, 69, 70, 71, 72, 73, 74, 75, 76, 77, 78, 79, 80, 81, 82, 83, 84, 85, 86, 87, 88, 89, 90, 91, 92, 93, 94, 95, 96, 97, 98, 99, 100, 101, 102, 103, 104, 105, 106, 107],
      "SequenceName": [
 "ep_b0",
 "ep_b0",
 "ep_b1000#2",
 "ep_b2000#3",
 "ep_b1000#4",
 "ep_b1000#5",
 "ep_b300#6",
 "ep_b2000#7",
 "ep_b2000#8",
 "ep_b2000#9",
 "ep_b1000#10",
 "ep_b300#11",
 "ep_b2000#12",
 "ep_b2000#13",
 "ep_b2000#14",
 "ep_b2000#15",
 "ep_b1000#16",
 "ep_b2000#17",
 "ep_b2000#18",
 "ep_b2000#19",
 "ep_b2000#20",
 "ep_b0",
 "ep_b1000#22",
 "ep_b2000#23",
 "ep_b1000#24",
 "ep_b1000#25",
 "ep_b2000#26",
 "ep_b2000#27",
 "ep_b2000#28",
 "ep_b2000#29",
 "ep_b300#30",
 "ep_b2000#31",
 "ep_b1000#32",
 "ep_b2000#33",
 "ep_b2000#34",
 "ep_b300#35",
 "ep_b2000#36",
 "ep_b2000#37",
 "ep_b1000#38",
 "ep_b2000#39",
 "ep_b2000#40",
 "ep_b0",
 "ep_b2000#42",
 "ep_b2000#43",
 "ep_b2000#44",
 "ep_b300#45",
 "ep_b1000#46",
 "ep_b2000#47",
 "ep_b2000#48",
 "ep_b1000#49",
 "ep_b2000#50",
 "ep_b1000#51",
 "ep_b1000#52",
 "ep_b2000#53",
 "ep_b300#54",
 "ep_b1000#55",
 "ep_b2000#56",
 "ep_b1000#57",
 "ep_b2000#58",
 "ep_b2000#59",
 "ep_b1000#60",
 "ep_b0",
 "ep_b1000#62",
 "ep_b2000#63",
 "ep_b2000#64",
 "ep_b2000#65",
 "ep_b2000#66",
 "ep_b300#67",
 "ep_b1000#68",
 "ep_b1000#69",
 "ep_b2000#70",
 "ep_b2000#71",
 "ep_b2000#72",
 "ep_b2000#73",
 "ep_b1000#74",
 "ep_b2000#75",
 "ep_b2000#76",
 "ep_b2000#77",
 "ep_b1000#78",
 "ep_b1000#79",
 "ep_b2000#80",
 "ep_b0",
 "ep_b1000#82",
 "ep_b2000#83",
 "ep_b2000#84",
 "ep_b1000#85",
 "ep_b1000#86",
 "ep_b2000#87",
 "ep_b1000#88",
 "ep_b2000#89",
 "ep_b2000#90",
 "ep_b2000#91",
 "ep_b1000#92",
 "ep_b2000#93",
 "ep_b2000#94",
 "ep_b2000#95",
 "ep_b300#96",
 "ep_b1000#97",
 "ep_b2000#98",
 "ep_b1000#99",
 "ep_b1000#100",
 "ep_b0",
 "ep_b2000#102",
 "ep_b2000#103",
 "ep_b1000#104",
 "ep_b2000#105",
 "ep_b2000#106"
],
      "TriggerTime": [12837.5, 15080.0, 17322.5, 19565.0, 21810.0, 24052.5, 26295.0, 28537.5, 30780.0, 33025.0, 35267.5, 37510.0, 39752.5, 41995.0, 44240.0, 46482.5, 48725.0, 50967.5, 53210.0, 55455.0, 57697.5, 59940.0, 62182.5, 64425.0, 66670.0, 68912.5, 71155.0, 73397.5, 75640.0, 77885.0, 80127.5, 82370.0, 84612.5, 86855.0, 89100.0, 91342.5, 93585.0, 95827.5, 98070.0, 100315.0, 102557.5, 104800.0, 107042.5, 109285.0, 111530.0, 113772.5, 116015.0, 118257.5, 120500.0, 122745.0, 124987.5, 127230.0, 129472.5, 131715.0, 133960.0, 136202.5, 138445.0, 140687.5, 142930.0, 145175.0, 147417.5, 149660.0, 151902.5, 154145.0, 156390.0, 158632.5, 160875.0, 163117.5, 165360.0, 167605.0, 169847.5, 172090.0, 174332.5, 176575.0, 178820.0, 181062.5, 183305.0, 185547.5, 187790.0, 190035.0, 192277.5, 194520.0, 196762.5, 199005.0, 201250.0, 203492.5, 205735.0, 207977.5, 210220.0, 212465.0, 214707.5, 216950.0, 219192.5, 221435.0, 223680.0, 225922.5, 228165.0, 230407.5, 232650.0, 234895.0, 237137.5, 239380.0, 241622.5, 243865.0, 246110.0, 248352.5, 250595.0],
      "WindowCenter": [4722.0, 4744.0, 4572.0, 4572.0, 4566.0, 4904.0, 4760.0, 4446.0, 4614.0, 4562.0, 4800.0, 4692.0, 4890.0, 5110.0, 4798.0, 4508.0, 4874.0, 4720.0, 4454.0, 4804.0, 4440.0, 4716.0, 4904.0, 4412.0, 4666.0, 4702.0, 4706.0, 4788.0, 5042.0, 4560.0, 4866.0, 4656.0, 4760.0, 4634.0, 4902.0, 4676.0, 5072.0, 4548.0, 5052.0, 4554.0, 5044.0, 4676.0, 4416.0, 4556.0, 5042.0, 4778.0, 4434.0, 4868.0, 4762.0, 4734.0, 4826.0, 5098.0, 4618.0, 4670.0, 4702.0, 4940.0, 4774.0, 4492.0, 5106.0, 4678.0, 4914.0, 4812.0, 4700.0, 5052.0, 4266.0, 4994.0, 4730.0, 4700.0, 4640.0, 4938.0, 4890.0, 4382.0, 4528.0, 4448.0, 4948.0, 4546.0, 4242.0, 4668.0, 4644.0, 4700.0, 4488.0, 4720.0, 5048.0, 5074.0, 4996.0, 4470.0, 4780.0, 5074.0, 5072.0, 4372.0, 4192.0, 5082.0, 4638.0, 5006.0, 4622.0, 4872.0, 4604.0, 4444.0, 4698.0, 4806.0, 4606.0, 4784.0, 4732.0, 5048.0, 4744.0, 4618.0, 4310.0],
      "WindowWidth": [18338.0, 18366.0, 18320.0, 18508.0, 18388.0, 18700.0, 18472.0, 18328.0, 18520.0, 18406.0, 18608.0, 18460.0, 18744.0, 19098.0, 18694.0, 18390.0, 18748.0, 18632.0, 18270.0, 18788.0, 18276.0, 18332.0, 18768.0, 18228.0, 18442.0, 18562.0, 18654.0, 18648.0, 19002.0, 18436.0, 18536.0, 18612.0, 18502.0, 18536.0, 18790.0, 18406.0, 19060.0, 18476.0, 18812.0, 18376.0, 18932.0, 18312.0, 18220.0, 18436.0, 19006.0, 18502.0, 18158.0, 18768.0, 18572.0, 18544.0, 18796.0, 18920.0, 18328.0, 18552.0, 18360.0, 18730.0, 18716.0, 18274.0, 19104.0, 18542.0, 18688.0, 18432.0, 18506.0, 19054.0, 18030.0, 18982.0, 18620.0, 18428.0, 18472.0, 18778.0, 18698.0, 18272.0, 18358.0, 18290.0, 18776.0, 18366.0, 18056.0, 18624.0, 18478.0, 18574.0, 18422.0, 18346.0, 18838.0, 19010.0, 18984.0, 18292.0, 18634.0, 19034.0, 18886.0, 18202.0, 17908.0, 18966.0, 18420.0, 19126.0, 18430.0, 18836.0, 18330.0, 18250.0, 18684.0, 18660.0, 18470.0, 18402.0, 18620.0, 19210.0, 18538.0, 18572.0, 18110.0]
    },
    "slices": {}
  }
}