{
  "AcquisitionMatrixPE": 110,
  "AcquisitionNumber": 1,
  "AcquisitionTime": "11:05:57.847500",
  "BandwidthPerPixelPhaseEncode": 12.987,
  "BaseResolution": 110,
  "BodyPartExamined": "BRAIN",
  "CoilCombinationMethod": "Sum of Squares",
  "ConsistencyInfo": "N4_VE11C_LATEST_20160120",
  "ConversionSoftware": "dcm2niix",
  "ConversionSoftwareVersion": "v1.0.20211006",
  "DerivedVendorReportedEchoSpacing": 0.000700001,
  "DeviceSerialNumber": "167006",
  "DiffusionScheme": "Monopolar",
  "DwellTime": 2.7e-06,
  "EchoTime": 0.0768,
  "EchoTrainLength": 83,
  "EffectiveEchoSpacing": 0.000700001,
  "FlipAngle": 78,
  "HeudiconvVersion": "0.5.3.post569+g418601f",
  "ImageComments": "Unaliased MB3/PE3/LB SENSE1+",
  "ImageOrientationPatientDICOM": [0.99863, 0.0500491, -0.0153015, -0.052336, 0.954994, -0.291971],
  "ImageOrientationText": "Tra>Cor(-17.0)",
  "ImageType": [
    "ORIGINAL",
    "PRIMARY",
    "DIFFUSION",
    "NONE",
    "MB",
    "ND",
    "MOSAIC"
],
  "ImagingFrequency": 123.259,
  "InPlanePhaseEncodingDirectionDICOM": "COL",
  "InstitutionAddress": "Chemin Queen-Mary 4565,Montreal,District,CA,H3W 1W5",
  "InstitutionName": "IUGM",
  "InstitutionalDepartmentName": "Department",
  "MRAcquisitionType": "2D",
  "MagneticFieldStrength": 3,
  "Manufacturer": "Siemens",
  "ManufacturersModelName": "Prisma_fit",
  "MatrixCoilMode": "SENSE",
  "Modality": "MR",
  "MultibandAccelerationFactor": 3,
  "PartialFourier": 0.75,
  "PatientPosition": "HFS",
  "PercentPhaseFOV": 100,
  "PercentSampling": 100,
  "PhaseEncodingDirection": "j",
  "PhaseEncodingSteps": 83,
  "PhaseResolution": 1,
  "PixelBandwidth": 1685,
  "ProcedureStepDescription": "anat^generic",
  "ProtocolName": "dMRI_dir106_PA_test_cmrr",
  "PulseSequenceDetails": "%CustomerSeq%\\cmrr_mbep2d_diff",
  "ReceiveCoilActiveElements": "HC1-6",
  "ReceiveCoilName": "HeadNeck_64",
  "ReconMatrixPE": 110,
  "RepetitionTime": 2.243,
  "SAR": 0.136434,
  "ScanOptions": "PFP\\EXT",
  "ScanningSequence": "EP",
  "SequenceName": "ep_b0",
  "SequenceVariant": "SK\\SS",
  "SeriesDescription": "dMRI_dir106_PA_test_cmrr",
  "SeriesNumber": 13,
  "ShimSetting": [629, -7205, -8828, 598, 114, -31, -44, 10],
  "SliceThickness": 2,
  "SliceTiming": [0, 1.17, 0.1175, 1.2875, 0.2325, 1.4025, 0.35, 1.52, 0.4675, 1.6375, 0.585, 1.755, 0.7025, 1.8725, 0.8175, 1.9875, 0.935, 2.105, 1.0525, 0, 1.17, 0.1175, 1.2875, 0.2325, 1.4025, 0.35, 1.52, 0.4675, 1.6375, 0.585, 1.755, 0.7025, 1.8725, 0.8175, 1.9875, 0.935, 2.105, 1.0525, 0, 1.17, 0.1175, 1.2875, 0.2325, 1.4025, 0.35, 1.52, 0.4675, 1.6375, 0.585, 1.755, 0.7025, 1.8725, 0.8175, 1.9875, 0.935, 2.105, 1.0525],
  "SoftwareVersions": "syngo MR E11",
  "SpacingBetweenSlices": 2,
  "StationName": "MRC35049",
  "TotalReadoutTime": 0.0763001,
  "TxRefAmp": 245.72,
  "WipMemBlock": "325ef801-9a11-4713-853e-de906b856a6f||Sequence: R017 ve11c/master r/75a17815+; Jun 28 2022 16:41:33 by eja",
  "dcmmeta_affine": [
    [-1.9972590208053589, -0.1046719178557396, 1.142037664436657e-08, 116.38774108886719],
    [-0.10009825229644775, 1.9099884033203125, -0.5847434401512146, -72.5497817993164],
    [-0.03060309588909149, 0.5839420557022095, 1.9126094579696655, -50.747947692871094],
    [0.0, 0.0, 0.0, 1.0]
],
  "dcmmeta_reorient_transform": [
    [0.0, -1.0, 0.0, 109.0],
    [1.0, 0.0, 0.0, 0.0],
    [0.0, 0.0, 1.0, 0.0],
    [0.0, 0.0, 0.0, 1.0]
],
  "dcmmeta_shape": [110, 110, 57, 107],
  "dcmmeta_slice_dim": 2,
  "dcmmeta_version": 0.6,
  "global": {
    "const": {
      "AcquisitionMatrix": [110, 0, 0, 110],
      "AngioFlag": "N",
      "BitsAllocated": 16,
      "BitsStored": 16,
      "BodyPartExamined": "BRAIN",
      "CardiacNumberOfImages": 1,
      "Columns": 880,
      "EchoNumbers": 1,
      "EchoTime": 76.8,
      "EchoTrainLength": 83,
      "FlipAngle": 78.0,
      "HighBit": 15,
      "ImageOrientationPatient": [0.99862953464429, 0.05004912753164, -0.015301547943, -0.0523359583473, 0.9549941731287, -0.2919710204012],
      "ImagePositionPatient": [-833.62455215893, -909.52229113505, 249.50161337769],
      "ImageType": [
        "ORIGINAL",
        "PRIMARY",
        "DIFFUSION",
        "NONE",
        "MB",
        "ND",
        "MOSAIC"
],
      "ImagedNucleus": "1H",
      "ImagingFrequency": 123.25881,
      "InPlanePhaseEncodingDirection": "COL",
      "MRAcquisitionType": "2D",
      "MagneticFieldStrength": 3.0,
      "Manufacturer": "SIEMENS",
      "ManufacturerModelName": "Prisma_fit",
      "Modality": "MR",
      "NominalInterval": 0,
      "NumberOfAverages": 1.0,
      "NumberOfPhaseEncodingSteps": 83,
      "PercentPhaseFieldOfView": 100.0,
      "PercentSampling": 100.0,
      "PerformedProcedureStepStartTime": "102813.555000",
      "PhotometricInterpretation": "MONOCHROME2",
      "PixelBandwidth": 1685.0,
      "PixelRepresentation": 0,
      "PixelSpacing": [2.0, 2.0],
      "ProtocolName": "dMRI_dir106_PA_test_cmrr",
      "RepetitionTime": 2243.0,
      "Rows": 880,
      "SAR": 0.13643429173345,
      "SamplesPerPixel": 1,
      "ScanOptions": [
        "PFP",
        "EXT"
],
      "ScanningSequence": "EP",
      "SequenceVariant": [
        "SK",
        "SS"
],
      "SeriesDescription": "dMRI_dir106_PA_test_cmrr",
      "SeriesNumber": 13,
      "SeriesTime": "110614.567000",
      "SliceLocation": -27.318999164915,
      "SliceThickness": 2.0,
      "SmallestImagePixelValue": 0,
      "SoftwareVersions": "syngo MR E11",
      "SpacingBetweenSlices": 1.9999999987675,
      "SpecificCharacterSet": "ISO_IR 100",
      "StudyID": "1",
      "StudyTime": "102813.473000",
      "TransmitCoilName": "Body",
      "VariableFlipAngleFlag": "N",
      "WindowCenterWidthExplanation": "Algo1",
      "dBdt": 0.0},
    "slices": {}
  },
  "time": {
    "samples": {
      "AcquisitionNumber": [1, 2, 3, 4, 5, 6, 7, 8, 9, 10, 11, 12, 13, 14, 15, 16, 17, 18, 19, 20, 21, 22, 23, 24, 25, 26, 27, 28, 29, 30, 31, 32, 33, 34, 35, 36, 37, 38, 39, 40, 41, 42, 43, 44, 45, 46, 47, 48, 49, 50, 51, 52, 53, 54, 55, 56, 57, 58, 59, 60, 61, 62, 63, 64, 65, 66, 67, 68, 69, 70, 71, 72, 73, 74, 75, 76, 77, 78, 79, 80, 81, 82, 83, 84, 85, 86, 87, 88, 89, 90, 91, 92, 93, 94, 95, 96, 97, 98, 99, 100, 101, 102, 103, 104, 105, 106, 107],
      "AcquisitionTime": ["110557.847500", "110600.090000", "110602.332500", "110604.577500", "110606.820000", "110609.062500", "110611.305000", "110613.547500", "110615.792500", "110618.035000", "110620.277500", "110622.520000", "110624.762500", "110627.007500", "110629.250000", "110631.492500", "110633.735000", "110635.977500", "110638.222500", "110640.465000", "110642.707500", "110644.950000", "110647.192500", "110649.437500", "110651.680000", "110653.922500", "110656.165000", "110658.407500", "110700.652500", "110702.895000", "110705.137500", "110707.380000", "110709.622500", "110711.867500", "110714.110000", "110716.352500", "110718.595000", "110720.837500", "110723.082500", "110725.325000", "110727.567500", "110729.810000", "110732.052500", "110734.297500", "110736.540000", "110738.782500", "110741.025000", "110743.267500", "110745.512500", "110747.755000", "110749.997500", "110752.240000", "110754.482500", "110756.727500", "110758.970000", "110801.212500", "110803.455000", "110805.697500", "110807.942500", "110810.185000", "110812.427500", "110814.670000", "110816.912500", "110819.157500", "110821.400000", "110823.642500", "110825.885000", "110828.127500", "110830.372500", "110832.615000", "110834.857500", "110837.100000", "110839.342500", "110841.587500", "110843.830000", "110846.072500", "110848.315000", "110850.557500", "110852.802500", "110855.045000", "110857.287500", "110859.530000", "110901.772500", "110904.017500", "110906.260000", "110908.502500", "110910.745000", "110912.987500", "110915.232500", "110917.475000", "110919.717500", "110921.960000", "110924.202500", "110926.447500", "110928.690000", "110930.932500", "110933.175000", "110935.417500", "110937.662500", "110939.905000", "110942.147500", "110944.390000", "110946.632500", "110948.877500", "110951.120000", "110953.362500", "110955.605000"],
      "ContentTime": ["110614.570000", "110614.573000", "110614.577000", "110614.580000", "110614.583000", "110614.586000", "110614.589000", "110714.540000", "110714.543000", "110714.546000", "110714.549000", "110714.556000", "110714.560000", "110714.563000", "110714.566000", "110714.569000", "110714.572000", "110714.575000", "110714.579000", "110714.582000", "110714.585000", "110714.588000", "110714.591000", "110714.594000", "110714.597000", "110714.601000", "110714.604000", "110714.633000", "110714.637000", "110714.640000", "110714.643000", "110714.646000", "110714.649000", "110814.539000", "110814.542000", "110814.545000", "110814.548000", "110814.551000", "110814.555000", "110814.558000", "110814.561000", "110814.564000", "110814.567000", "110814.570000", "110814.573000", "110814.576000", "110814.579000", "110814.582000", "110814.585000", "110814.588000", "110814.592000", "110814.595000", "110814.598000", "110814.601000", "110814.604000", "110814.613000", "110814.616000", "110814.619000", "110814.622000", "110814.625000", "110914.540000", "110914.543000", "110914.546000", "110914.549000", "110914.552000", "110914.556000", "110914.559000", "110914.562000", "110914.565000", "110914.568000", "110914.571000", "110914.575000", "110914.578000", "110914.581000", "110914.584000", "110914.587000", "110914.590000", "110914.593000", "110914.596000", "110914.599000", "110914.602000", "110914.605000", "110914.609000", "110914.612000", "110914.615000", "110914.618000", "110914.621000", "111000.415000", "111000.419000", "111000.422000", "111000.425000", "111000.428000", "111000.431000", "111000.434000", "111000.437000", "111000.440000", "111000.443000", "111000.446000", "111000.449000", "111000.453000", "111000.456000", "111000.459000", "111000.462000", "111000.465000", "111000.468000", "111000.471000", "111000.474000"],
      "InstanceCreationTime": ["110614.570000", "110614.573000", "110614.577000", "110614.580000", "110614.583000", "110614.586000", "110614.589000", "110714.540000", "110714.543000", "110714.546000", "110714.549000", "110714.556000", "110714.560000", "110714.563000", "110714.566000", "110714.569000", "110714.572000", "110714.575000", "110714.579000", "110714.582000", "110714.585000", "110714.588000", "110714.591000", "110714.594000", "110714.597000", "110714.601000", "110714.604000", "110714.633000", "110714.637000", "110714.640000", "110714.643000", "110714.646000", "110714.649000", "110814.539000", "110814.542000", "110814.545000", "110814.548000", "110814.551000", "110814.555000", "110814.558000", "110814.561000", "110814.564000", "110814.567000", "110814.570000", "110814.573000", "110814.576000", "110814.579000", "110814.582000", "110814.585000", "110814.588000", "110814.592000", "110814.595000", "110814.598000", "110814.601000", "110814.604000", "110814.613000", "110814.616000", "110814.619000", "110814.622000", "110814.625000", "110914.540000", "110914.543000", "110914.546000", "110914.549000", "110914.552000", "110914.556000", "110914.559000", "110914.562000", "110914.565000", "110914.568000", "110914.571000", "110914.575000", "110914.578000", "110914.581000", "110914.584000", "110914.587000", "110914.590000", "110914.593000", "110914.596000", "110914.599000", "110914.602000", "110914.605000", "110914.609000", "110914.612000", "110914.615000", "110914.618000", "110914.621000", "111000.415000", "111000.419000", "111000.422000", "111000.425000", "111000.428000", "111000.431000", "111000.434000", "111000.437000", "111000.440000", "111000.443000", "111000.446000", "111000.449000", "111000.453000", "111000.456000", "111000.459000", "111000.462000", "111000.465000", "111000.468000", "111000.471000", "111000.474000"],
      "InstanceNumber": [1, 2, 3, 4, 5, 6, 7, 8, 9, 10, 11, 12, 13, 14, 15, 16, 17, 18, 19, 20, 21, 22, 23, 24, 25, 26, 27, 28, 29, 30, 31, 32, 33, 34, 35, 36, 37, 38, 39, 40, 41, 42, 43, 44, 45, 46, 47, 48, 49, 50, 51, 52, 53, 54, 55, 56, 57, 58, 59, 60, 61, 62, 63, 64, 65, 66, 67, 68, 69, 70, 71, 72, 73, 74, 75, 76, 77, 78, 79, 80, 81, 82, 83, 84, 85, 86, 87, 88, 89, 90, 91, 92, 93, 94, 95, 96, 97, 98, 99, 100, 101, 102, 103, 104, 105, 106, 107],
      "LargestImagePixelValue": [65535, 65535, 28485, 15183, 28751, 28908, 48945, 16462, 14213, 14300, 29410, 50242, 15420, 15601, 16084, 14659, 27713, 13960, 15054, 15149, 15325, 65535, 27968, 16483, 28970, 27818, 14412, 13477, 16367, 15023, 44978, 13052, 29763, 15461, 14415, 44613, 16036, 15371, 28624, 16526, 14799, 63917, 16135, 13422, 16899, 49735, 28280, 14085, 14646, 27100, 15337, 27880, 26191, 16006, 50689, 27032, 15086, 27554, 15916, 13173, 25565, 65456, 26230, 15566, 14320, 14870, 16412, 49103, 26711, 29556, 13138, 15118, 16131, 15083, 28310, 13749, 15280, 15585, 26555, 24946, 16420, 62095, 28431, 16615, 14619, 27090, 25224, 16950, 27518, 14553, 14900, 15056, 26845, 16319, 14127, 16045, 49098, 27852, 15071, 28117, 28062, 64220, 12793, 18122, 28404, 13820, 16163],
      "SequenceName": [
 "ep_b0",
 "ep_b0",
 "ep_b1000#2",
 "ep_b2000#3",
 "ep_b1000#4",
 "ep_b1000#5",
 "ep_b300#6",
 "ep_b2000#7",
 "ep_b2000#8",
 "ep_b2000#9",
 "ep_b1000#10",
 "ep_b300#11",
 "ep_b2000#12",
 "ep_b2000#13",
 "ep_b2000#14",
 "ep_b2000#15",
 "ep_b1000#16",
 "ep_b2000#17",
 "ep_b2000#18",
 "ep_b2000#19",
 "ep_b2000#20",
 "ep_b0",
 "ep_b1000#22",
 "ep_b2000#23",
 "ep_b1000#24",
 "ep_b1000#25",
 "ep_b2000#26",
 "ep_b2000#27",
 "ep_b2000#28",
 "ep_b2000#29",
 "ep_b300#30",
 "ep_b2000#31",
 "ep_b1000#32",
 "ep_b2000#33",
 "ep_b2000#34",
 "ep_b300#35",
 "ep_b2000#36",
 "ep_b2000#37",
 "ep_b1000#38",
 "ep_b2000#39",
 "ep_b2000#40",
 "ep_b0",
 "ep_b2000#42",
 "ep_b2000#43",
 "ep_b2000#44",
 "ep_b300#45",
 "ep_b1000#46",
 "ep_b2000#47",
 "ep_b2000#48",
 "ep_b1000#49",
 "ep_b2000#50",
 "ep_b1000#51",
 "ep_b1000#52",
 "ep_b2000#53",
 "ep_b300#54",
 "ep_b1000#55",
 "ep_b2000#56",
 "ep_b1000#57",
 "ep_b2000#58",
 "ep_b2000#59",
 "ep_b1000#60",
 "ep_b0",
 "ep_b1000#62",
 "ep_b2000#63",
 "ep_b2000#64",
 "ep_b2000#65",
 "ep_b2000#66",
 "ep_b300#67",
 "ep_b1000#68",
 "ep_b1000#69",
 "ep_b2000#70",
 "ep_b2000#71",
 "ep_b2000#72",
 "ep_b2000#73",
 "ep_b1000#74",
 "ep_b2000#75",
 "ep_b2000#76",
 "ep_b2000#77",
 "ep_b1000#78",
 "ep_b1000#79",
 "ep_b2000#80",
 "ep_b0",
 "ep_b1000#82",
 "ep_b2000#83",
 "ep_b2000#84",
 "ep_b1000#85",
 "ep_b1000#86",
 "ep_b2000#87",
 "ep_b1000#88",
 "ep_b2000#89",
 "ep_b2000#90",
 "ep_b2000#91",
 "ep_b1000#92",
 "ep_b2000#93",
 "ep_b2000#94",
 "ep_b2000#95",
 "ep_b300#96",
 "ep_b1000#97",
 "ep_b2000#98",
 "ep_b1000#99",
 "ep_b1000#100",
 "ep_b0",
 "ep_b2000#102",
 "ep_b2000#103",
 "ep_b1000#104",
 "ep_b2000#105",
 "ep_b2000#106"
],
      "TriggerTime": [12837.5, 15080.0, 17322.5, 19565.0, 21810.0, 24052.5, 26295.0, 28537.5, 30780.0, 33025.0, 35267.5, 37510.0, 39752.5, 41995.0, 44240.0, 46482.5, 48725.0, 50967.5, 53210.0, 55455.0, 57697.5, 59940.0, 62182.5, 64425.0, 66670.0, 68912.5, 71155.0, 73397.5, 75640.0, 77885.0, 80127.5, 82370.0, 84612.5, 86855.0, 89100.0, 91342.5, 93585.0, 95827.5, 98070.0, 100315.0, 102557.5, 104800.0, 107042.5, 109285.0, 111530.0, 113772.5, 116015.0, 118257.5, 120500.0, 122745.0, 124987.5, 127230.0, 129472.5, 131715.0, 133960.0, 136202.5, 138445.0, 140687.5, 142930.0, 145175.0, 147417.5, 149660.0, 151902.5, 154145.0, 156390.0, 158632.5, 160875.0, 163117.5, 165360.0, 167605.0, 169847.5, 172090.0, 174332.5, 176575.0, 178820.0, 181062.5, 183305.0, 185547.5, 187790.0, 190035.0, 192277.5, 194520.0, 196762.5, 199005.0, 201250.0, 203492.5, 205735.0, 207977.5, 210220.0, 212465.0, 214707.5, 216950.0, 219192.5, 221435.0, 223680.0, 225922.5, 228165.0, 230407.5, 232650.0, 234895.0, 237137.5, 239380.0, 241622.5, 243865.0, 246110.0, 248352.5, 250595.0],
      "WindowCenter": [7551.0, 7548.0, 3800.0, 2467.0, 3789.0, 3748.0, 5692.0, 2488.0, 2428.0, 2440.0, 3770.0, 5666.0, 2423.0, 2394.0, 2470.0, 2461.0, 3764.0, 2418.0, 2462.0, 2435.0, 2436.0, 7406.0, 3753.0, 2497.0, 3782.0, 3756.0, 2430.0, 2426.0, 2423.0, 2409.0, 5622.0, 2388.0, 3755.0, 2459.0, 2436.0, 5622.0, 2443.0, 2447.0, 3719.0, 2483.0, 2412.0, 7473.0, 2500.0, 2408.0, 2483.0, 5620.0, 3743.0, 2375.0, 2472.0, 3676.0, 2449.0, 3744.0, 3738.0, 2469.0, 5661.0, 3721.0, 2419.0, 3733.0, 2430.0, 2452.0, 3738.0, 7487.0, 3778.0, 2424.0, 2482.0, 2409.0, 2443.0, 5716.0, 3705.0, 3762.0, 2435.0, 2505.0, 2478.0, 2461.0, 3691.0, 2453.0, 2467.0, 2446.0, 3676.0, 3726.0, 2460.0, 7399.0, 3734.0, 2445.0, 2418.0, 3769.0, 3734.0, 2439.0, 3674.0, 2429.0, 2469.0, 2413.0, 3685.0, 2423.0, 2486.0, 2475.0, 5673.0, 3777.0, 2431.0, 3738.0, 3750.0, 7431.0, 2376.0, 2444.0, 3768.0, 2386.0, 2510.0],
      "WindowWidth": [16410.0, 16406.0, 8725.0, 6009.0, 8712.0, 8641.0, 12556.0, 6046.0, 5909.0, 5936.0, 8723.0, 12512.0, 5926.0, 5835.0, 6011.0, 5988.0, 8669.0, 5901.0, 5993.0, 5941.0, 5947.0, 16095.0, 8668.0, 6087.0, 8708.0, 8647.0, 5916.0, 5903.0, 5929.0, 5870.0, 12444.0, 5825.0, 8716.0, 5980.0, 5921.0, 12456.0, 5993.0, 5962.0, 8577.0, 6027.0, 5874.0, 16265.0, 6103.0, 5856.0, 6057.0, 12424.0, 8682.0, 5815.0, 5981.0, 8551.0, 5970.0, 8685.0, 8624.0, 6018.0, 12523.0, 8602.0, 5895.0, 8628.0, 5961.0, 5946.0, 8613.0, 16277.0, 8696.0, 5905.0, 6006.0, 5896.0, 5984.0, 12634.0, 8548.0, 8673.0, 5912.0, 6091.0, 6043.0, 5990.0, 8574.0, 5955.0, 6022.0, 5951.0, 8520.0, 8598.0, 5987.0, 16113.0, 8633.0, 5998.0, 5895.0, 8701.0, 8607.0, 5931.0, 8518.0, 5959.0, 6025.0, 5875.0, 8567.0, 5927.0, 6001.0, 6022.0, 12528.0, 8694.0, 5921.0, 8636.0, 8641.0, 16166.0, 5809.0, 5957.0, 8666.0, 5825.0, 6107.0]
    },
    "slices": {}
  }
}