{
  "AcquisitionMatrixPE": 110,
  "AcquisitionNumber": 1,
  "AcquisitionTime": "19:00:59.592500",
  "BandwidthPerPixelPhaseEncode": 12.987,
  "BaseResolution": 110,
  "BodyPartExamined": "BRAIN",
  "CoilCombinationMethod": "Sum of Squares",
  "ConsistencyInfo": "N4_VE11C_LATEST_20160120",
  "ConversionSoftware": "dcm2niix",
  "ConversionSoftwareVersion": "v1.0.20220505",
  "DerivedVendorReportedEchoSpacing": 0.000700001,
  "DeviceSerialNumber": "167006",
  "DiffusionScheme": "Monopolar",
  "DwellTime": 2.7e-06,
  "EchoTime": 0.0768,
  "EchoTrainLength": 83,
  "EffectiveEchoSpacing": 0.000700001,
  "FlipAngle": 78,
  "HeudiconvVersion": "0.5.3.post811+g6206e14",
  "ImageComments": "Unaliased MB3/PE3/LB SENSE1+",
  "ImageOrientationPatientDICOM": [1, 0, 0, 0, 0.951057, -0.309017],
  "ImageOrientationText": "Tra>Cor(-18.0)",
  "ImageType": [
    "ORIGINAL",
    "PRIMARY",
    "DIFFUSION",
    "NONE",
    "MB",
    "ND",
    "MOSAIC"
],
  "ImagingFrequency": 123.259,
  "InPlanePhaseEncodingDirectionDICOM": "COL",
  "InstitutionAddress": "Chemin Queen-Mary 4565,Montreal,District,CA,H3W 1W5",
  "InstitutionName": "IUGM",
  "InstitutionalDepartmentName": "Department",
  "MRAcquisitionType": "2D",
  "MagneticFieldStrength": 3,
  "Manufacturer": "Siemens",
  "ManufacturersModelName": "Prisma_fit",
  "MatrixCoilMode": "SENSE",
  "Modality": "MR",
  "MultibandAccelerationFactor": 3,
  "PartialFourier": 0.75,
  "PatientPosition": "HFS",
  "PercentPhaseFOV": 100,
  "PercentSampling": 100,
  "PhaseEncodingDirection": "j-",
  "PhaseEncodingSteps": 83,
  "PhaseResolution": 1,
  "PixelBandwidth": 1685,
  "ProcedureStepDescription": "anat^generic",
  "ProtocolName": "dMRI_dir106_AP_test_cmrr",
  "PulseSequenceDetails": "%CustomerSeq%\\cmrr_mbep2d_diff",
  "ReceiveCoilActiveElements": "HC1-6",
  "ReceiveCoilName": "HeadNeck_64",
  "ReconMatrixPE": 110,
  "RepetitionTime": 2.243,
  "SAR": 0.151269,
  "ScanOptions": "PFP\\EXT",
  "ScanningSequence": "EP",
  "SequenceName": "ep_b0",
  "SequenceVariant": "SK\\SS",
  "SeriesDescription": "dMRI_dir106_AP_test_cmrr",
  "SeriesNumber": 9,
  "ShimSetting": [582, -7308, -8817, 398, 31, -341, -52, 97],
  "SliceThickness": 2,
  "SliceTiming": [0, 1.17, 0.1175, 1.2875, 0.2325, 1.4025, 0.35, 1.52, 0.4675, 1.6375, 0.585, 1.755, 0.7025, 1.87, 0.8175, 1.9875, 0.935, 2.105, 1.0525, 0, 1.17, 0.1175, 1.2875, 0.2325, 1.4025, 0.35, 1.52, 0.4675, 1.6375, 0.585, 1.755, 0.7025, 1.87, 0.8175, 1.9875, 0.935, 2.105, 1.0525, 0, 1.17, 0.1175, 1.2875, 0.2325, 1.4025, 0.35, 1.52, 0.4675, 1.6375, 0.585, 1.755, 0.7025, 1.87, 0.8175, 1.9875, 0.935, 2.105, 1.0525],
  "SoftwareVersions": "syngo MR E11",
  "SpacingBetweenSlices": 2,
  "StationName": "MRC35049",
  "TotalReadoutTime": 0.0763001,
  "TxRefAmp": 244.364,
  "WipMemBlock": "c2760cbb-a3dd-4fe8-86f1-7428688953c0||Sequence: R017 ve11c/master r/75a17815+; Jun 28 2022 16:41:33 by eja",
  "dcmmeta_affine": [
    [-2.0, 0.0, 0.0, 109.49686431884766],
    [0.0, 1.9021130800247192, -0.6180340051651001, -83.27001953125],
    [0.0, 0.6180339455604553, 1.9021130800247192, -48.627044677734375],
    [0.0, 0.0, 0.0, 1.0]
],
  "dcmmeta_reorient_transform": [
    [0.0, -1.0, 0.0, 109.0],
    [1.0, 0.0, 0.0, 0.0],
    [0.0, 0.0, 1.0, 0.0],
    [0.0, 0.0, 0.0, 1.0]
],
  "dcmmeta_shape": [110, 110, 57, 107],
  "dcmmeta_slice_dim": 2,
  "dcmmeta_version": 0.6,
  "global": {
    "const": {
      "AcquisitionMatrix": [110, 0, 0, 110],
      "AngioFlag": "N",
      "BitsAllocated": 16,
      "BitsStored": 16,
      "BodyPartExamined": "BRAIN",
      "CardiacNumberOfImages": 1,
      "Columns": 880,
      "EchoNumbers": 1,
      "EchoTime": 76.8,
      "EchoTrainLength": 83,
      "FlipAngle": 78.0,
      "HighBit": 15,
      "ImageOrientationPatient": [1.0, 0.0, 0.0, 0.0, 0.95105651966806, -0.3090169839942],
      "ImagePositionPatient": [-879.49686384201, -856.37382529007, 256.68173584716],
      "ImageType": [
        "ORIGINAL",
        "PRIMARY",
        "DIFFUSION",
        "NONE",
        "MB",
        "ND",
        "MOSAIC"
],
      "ImagedNucleus": "1H",
      "ImagingFrequency": 123.259189,
      "InPlanePhaseEncodingDirection": "COL",
      "LargestImagePixelValue": 4095,
      "MRAcquisitionType": "2D",
      "MagneticFieldStrength": 3.0,
      "Manufacturer": "SIEMENS",
      "ManufacturerModelName": "Prisma_fit",
      "Modality": "MR",
      "NominalInterval": 0,
      "NumberOfAverages": 1.0,
      "NumberOfPhaseEncodingSteps": 83,
      "PercentPhaseFieldOfView": 100.0,
      "PercentSampling": 100.0,
      "PerformedProcedureStepStartTime": "184517.626000",
      "PhotometricInterpretation": "MONOCHROME2",
      "PixelBandwidth": 1685.0,
      "PixelRepresentation": 0,
      "PixelSpacing": [2.0, 2.0],
      "ProtocolName": "dMRI_dir106_AP_test_cmrr",
      "RepetitionTime": 2243.0,
      "RescaleIntercept": -4096.0,
      "RescaleSlope": 2.0,
      "RescaleType": "US",
      "Rows": 880,
      "SAR": 0.15126886974537,
      "SamplesPerPixel": 1,
      "ScanOptions": [
        "PFP",
        "EXT"
],
      "ScanningSequence": "EP",
      "SequenceVariant": [
        "SK",
        "SS"
],
      "SeriesDescription": "dMRI_dir106_AP_test_cmrr",
      "SeriesNumber": 9,
      "SeriesTime": "190146.121000",
      "SliceLocation": -20.51521830557,
      "SliceThickness": 2.0,
      "SmallestImagePixelValue": 0,
      "SoftwareVersions": "syngo MR E11",
      "SpacingBetweenSlices": 2.0000000287265,
      "SpecificCharacterSet": "ISO_IR 100",
      "StudyID": "1",
      "StudyTime": "184517.538000",
      "TransmitCoilName": "Body",
      "VariableFlipAngleFlag": "N",
      "WindowCenterWidthExplanation": "Algo1",
      "dBdt": 0.0},
    "slices": {}
  },
  "time": {
    "samples": {
      "AcquisitionNumber": [1, 2, 3, 4, 5, 6, 7, 8, 9, 10, 11, 12, 13, 14, 15, 16, 17, 18, 19, 20, 21, 22, 23, 24, 25, 26, 27, 28, 29, 30, 31, 32, 33, 34, 35, 36, 37, 38, 39, 40, 41, 42, 43, 44, 45, 46, 47, 48, 49, 50, 51, 52, 53, 54, 55, 56, 57, 58, 59, 60, 61, 62, 63, 64, 65, 66, 67, 68, 69, 70, 71, 72, 73, 74, 75, 76, 77, 78, 79, 80, 81, 82, 83, 84, 85, 86, 87, 88, 89, 90, 91, 92, 93, 94, 95, 96, 97, 98, 99, 100, 101, 102, 103, 104, 105, 106, 107],
      "AcquisitionTime": ["190059.592500", "190101.835000", "190104.077500", "190106.320000", "190108.565000", "190110.807500", "190113.050000", "190115.292500", "190117.535000", "190119.780000", "190122.022500", "190124.265000", "190126.507500", "190128.750000", "190130.995000", "190133.237500", "190135.480000", "190137.722500", "190139.965000", "190142.210000", "190144.452500", "190146.695000", "190148.937500", "190151.180000", "190153.425000", "190155.667500", "190157.910000", "190200.152500", "190202.395000", "190204.640000", "190206.882500", "190209.125000", "190211.367500", "190213.610000", "190215.855000", "190218.097500", "190220.340000", "190222.582500", "190224.825000", "190227.070000", "190229.312500", "190231.555000", "190233.797500", "190236.040000", "190238.285000", "190240.527500", "190242.770000", "190245.012500", "190247.255000", "190249.500000", "190251.742500", "190253.985000", "190256.227500", "190258.470000", "190300.715000", "190302.957500", "190305.200000", "190307.442500", "190309.685000", "190311.930000", "190314.172500", "190316.415000", "190318.657500", "190320.900000", "190323.145000", "190325.387500", "190327.630000", "190329.872500", "190332.115000", "190334.360000", "190336.602500", "190338.845000", "190341.087500", "190343.330000", "190345.575000", "190347.817500", "190350.060000", "190352.302500", "190354.545000", "190356.790000", "190359.032500", "190401.275000", "190403.517500", "190405.760000", "190408.005000", "190410.247500", "190412.490000", "190414.732500", "190416.975000", "190419.220000", "190421.462500", "190423.705000", "190425.947500", "190428.190000", "190430.435000", "190432.677500", "190434.920000", "190437.162500", "190439.405000", "190441.650000", "190443.892500", "190446.135000", "190448.377500", "190450.620000", "190452.865000", "190455.107500", "190457.350000"],
      "ContentTime": ["190146.123000", "190146.127000", "190146.130000", "190146.133000", "190146.137000", "190146.140000", "190146.143000", "190146.146000", "190146.150000", "190146.153000", "190146.156000", "190146.159000", "190146.162000", "190146.166000", "190146.169000", "190146.172000", "190146.175000", "190146.179000", "190146.182000", "190146.185000", "190246.102000", "190246.105000", "190246.109000", "190246.112000", "190246.115000", "190246.118000", "190246.121000", "190246.124000", "190246.128000", "190246.131000", "190246.134000", "190246.137000", "190246.141000", "190246.144000", "190246.147000", "190246.150000", "190246.153000", "190246.157000", "190246.160000", "190246.163000", "190246.166000", "190246.169000", "190246.172000", "190246.176000", "190246.179000", "190246.191000", "190246.194000", "190346.100000", "190346.104000", "190346.107000", "190346.110000", "190346.114000", "190346.117000", "190346.120000", "190346.123000", "190346.127000", "190346.131000", "190346.135000", "190346.138000", "190346.141000", "190346.145000", "190346.148000", "190346.152000", "190346.155000", "190346.159000", "190346.162000", "190346.166000", "190346.169000", "190346.172000", "190346.175000", "190346.178000", "190346.182000", "190346.185000", "190446.132000", "190446.135000", "190446.139000", "190446.142000", "190446.145000", "190446.148000", "190446.152000", "190446.155000", "190446.158000", "190446.161000", "190446.164000", "190446.168000", "190446.171000", "190446.174000", "190446.177000", "190446.181000", "190446.184000", "190446.187000", "190446.190000", "190446.194000", "190446.197000", "190446.200000", "190446.203000", "190446.206000", "190446.210000", "190446.213000", "190446.216000", "190502.212000", "190502.215000", "190502.228000", "190502.231000", "190502.235000", "190502.238000", "190502.241000"],
      "InstanceCreationTime": ["190146.123000", "190146.127000", "190146.130000", "190146.133000", "190146.137000", "190146.140000", "190146.143000", "190146.146000", "190146.150000", "190146.153000", "190146.156000", "190146.159000", "190146.162000", "190146.166000", "190146.169000", "190146.172000", "190146.175000", "190146.179000", "190146.182000", "190146.185000", "190246.102000", "190246.105000", "190246.109000", "190246.112000", "190246.115000", "190246.118000", "190246.121000", "190246.124000", "190246.128000", "190246.131000", "190246.134000", "190246.137000", "190246.141000", "190246.144000", "190246.147000", "190246.150000", "190246.153000", "190246.157000", "190246.160000", "190246.163000", "190246.166000", "190246.169000", "190246.172000", "190246.176000", "190246.179000", "190246.191000", "190246.194000", "190346.100000", "190346.104000", "190346.107000", "190346.110000", "190346.114000", "190346.117000", "190346.120000", "190346.123000", "190346.127000", "190346.131000", "190346.135000", "190346.138000", "190346.141000", "190346.145000", "190346.148000", "190346.152000", "190346.155000", "190346.159000", "190346.162000", "190346.166000", "190346.169000", "190346.172000", "190346.175000", "190346.178000", "190346.182000", "190346.185000", "190446.132000", "190446.135000", "190446.139000", "190446.142000", "190446.145000", "190446.148000", "190446.152000", "190446.155000", "190446.158000", "190446.161000", "190446.164000", "190446.168000", "190446.171000", "190446.174000", "190446.177000", "190446.181000", "190446.184000", "190446.187000", "190446.190000", "190446.194000", "190446.197000", "190446.200000", "190446.203000", "190446.206000", "190446.210000", "190446.213000", "190446.216000", "190502.212000", "190502.215000", "190502.228000", "190502.231000", "190502.235000", "190502.238000", "190502.241000"],
      "InstanceNumber": [1, 2, 3, 4, 5, 6, 7, 8, 9, 10, 11, 12, 13, 14, 15, 16, 17, 18, 19, 20, 21, 22, 23, 24, 25, 26, 27, 28, 29, 30, 31, 32, 33, 34, 35, 36, 37, 38, 39, 40, 41, 42, 43, 44, 45, 46, 47, 48, 49, 50, 51, 52, 53, 54, 55, 56, 57, 58, 59, 60, 61, 62, 63, 64, 65, 66, 67, 68, 69, 70, 71, 72, 73, 74, 75, 76, 77, 78, 79, 80, 81, 82, 83, 84, 85, 86, 87, 88, 89, 90, 91, 92, 93, 94, 95, 96, 97, 98, 99, 100, 101, 102, 103, 104, 105, 106, 107],
      "SequenceName": [
 "ep_b0",
 "ep_b0",
 "ep_b1000#2",
 "ep_b2000#3",
 "ep_b1000#4",
 "ep_b1000#5",
 "ep_b300#6",
 "ep_b2000#7",
 "ep_b2000#8",
 "ep_b2000#9",
 "ep_b1000#10",
 "ep_b300#11",
 "ep_b2000#12",
 "ep_b2000#13",
 "ep_b2000#14",
 "ep_b2000#15",
 "ep_b1000#16",
 "ep_b2000#17",
 "ep_b2000#18",
 "ep_b2000#19",
 "ep_b2000#20",
 "ep_b0",
 "ep_b1000#22",
 "ep_b2000#23",
 "ep_b1000#24",
 "ep_b1000#25",
 "ep_b2000#26",
 "ep_b2000#27",
 "ep_b2000#28",
 "ep_b2000#29",
 "ep_b300#30",
 "ep_b2000#31",
 "ep_b1000#32",
 "ep_b2000#33",
 "ep_b2000#34",
 "ep_b300#35",
 "ep_b2000#36",
 "ep_b2000#37",
 "ep_b1000#38",
 "ep_b2000#39",
 "ep_b2000#40",
 "ep_b0",
 "ep_b2000#42",
 "ep_b2000#43",
 "ep_b2000#44",
 "ep_b300#45",
 "ep_b1000#46",
 "ep_b2000#47",
 "ep_b2000#48",
 "ep_b1000#49",
 "ep_b2000#50",
 "ep_b1000#51",
 "ep_b1000#52",
 "ep_b2000#53",
 "ep_b300#54",
 "ep_b1000#55",
 "ep_b2000#56",
 "ep_b1000#57",
 "ep_b2000#58",
 "ep_b2000#59",
 "ep_b1000#60",
 "ep_b0",
 "ep_b1000#62",
 "ep_b2000#63",
 "ep_b2000#64",
 "ep_b2000#65",
 "ep_b2000#66",
 "ep_b300#67",
 "ep_b1000#68",
 "ep_b1000#69",
 "ep_b2000#70",
 "ep_b2000#71",
 "ep_b2000#72",
 "ep_b2000#73",
 "ep_b1000#74",
 "ep_b2000#75",
 "ep_b2000#76",
 "ep_b2000#77",
 "ep_b1000#78",
 "ep_b1000#79",
 "ep_b2000#80",
 "ep_b0",
 "ep_b1000#82",
 "ep_b2000#83",
 "ep_b2000#84",
 "ep_b1000#85",
 "ep_b1000#86",
 "ep_b2000#87",
 "ep_b1000#88",
 "ep_b2000#89",
 "ep_b2000#90",
 "ep_b2000#91",
 "ep_b1000#92",
 "ep_b2000#93",
 "ep_b2000#94",
 "ep_b2000#95",
 "ep_b300#96",
 "ep_b1000#97",
 "ep_b2000#98",
 "ep_b1000#99",
 "ep_b1000#100",
 "ep_b0",
 "ep_b2000#102",
 "ep_b2000#103",
 "ep_b1000#104",
 "ep_b2000#105",
 "ep_b2000#106"
],
      "TriggerTime": [12837.5, 15080.0, 17322.5, 19565.0, 21807.5, 24052.5, 26295.0, 28537.5, 30780.0, 33022.5, 35267.5, 37510.0, 39752.5, 41995.0, 44237.5, 46482.5, 48725.0, 50967.5, 53210.0, 55452.5, 57697.5, 59940.0, 62182.5, 64425.0, 66667.5, 68912.5, 71155.0, 73397.5, 75640.0, 77882.5, 80127.5, 82370.0, 84612.5, 86855.0, 89097.5, 91342.5, 93585.0, 95827.5, 98070.0, 100312.5, 102557.5, 104800.0, 107042.5, 109285.0, 111527.5, 113772.5, 116015.0, 118257.5, 120500.0, 122742.5, 124987.5, 127230.0, 129472.5, 131715.0, 133957.5, 136202.5, 138445.0, 140687.5, 142930.0, 145172.5, 147417.5, 149660.0, 151902.5, 154145.0, 156387.5, 158632.5, 160875.0, 163117.5, 165360.0, 167602.5, 169847.5, 172090.0, 174332.5, 176575.0, 178817.5, 181062.5, 183305.0, 185547.5, 187790.0, 190032.5, 192277.5, 194520.0, 196762.5, 199005.0, 201247.5, 203492.5, 205735.0, 207977.5, 210220.0, 212462.5, 214707.5, 216950.0, 219192.5, 221435.0, 223677.5, 225922.5, 228165.0, 230407.5, 232650.0, 234892.5, 237137.5, 239380.0, 241622.5, 243865.0, 246107.5, 248352.5, 250595.0],
      "WindowCenter": [4684.0, 4688.0, 4824.0, 4838.0, 5022.0, 4874.0, 4774.0, 4684.0, 5120.0, 5014.0, 5008.0, 4746.0, 4986.0, 5182.0, 5170.0, 4982.0, 5104.0, 5042.0, 4772.0, 5014.0, 4708.0, 4658.0, 5158.0, 4664.0, 4914.0, 5072.0, 5072.0, 5004.0, 5060.0, 4944.0, 4786.0, 5078.0, 4904.0, 5012.0, 5020.0, 4646.0, 5064.0, 4812.0, 5204.0, 5096.0, 5224.0, 4682.0, 4836.0, 4894.0, 5056.0, 4658.0, 4738.0, 4800.0, 4976.0, 4870.0, 4892.0, 4998.0, 4834.0, 4990.0, 4854.0, 4884.0, 5074.0, 4596.0, 5126.0, 4910.0, 5060.0, 4810.0, 4996.0, 5070.0, 4624.0, 4872.0, 4882.0, 4770.0, 4758.0, 5182.0, 5150.0, 4554.0, 4988.0, 4568.0, 5100.0, 4952.0, 4352.0, 5056.0, 4734.0, 5100.0, 4948.0, 4686.0, 5118.0, 4964.0, 5014.0, 4666.0, 5026.0, 5112.0, 5206.0, 4538.0, 4568.0, 5164.0, 4754.0, 4736.0, 4948.0, 5060.0, 4746.0, 4664.0, 5054.0, 5174.0, 4890.0, 4726.0, 5086.0, 5008.0, 4788.0, 4956.0, 4482.0],
      "WindowWidth": [18298.0, 18304.0, 18526.0, 18734.0, 18858.0, 18628.0, 18418.0, 18550.0, 19064.0, 18840.0, 18724.0, 18402.0, 18838.0, 19226.0, 19350.0, 18900.0, 18888.0, 18940.0, 18558.0, 19212.0, 18544.0, 18266.0, 18988.0, 18524.0, 18688.0, 18820.0, 19218.0, 18790.0, 19058.0, 18800.0, 18414.0, 18924.0, 18772.0, 19020.0, 18858.0, 18302.0, 19218.0, 18674.0, 19024.0, 18962.0, 19256.0, 18308.0, 18712.0, 18630.0, 19072.0, 18356.0, 18544.0, 18594.0, 18750.0, 18714.0, 19038.0, 19054.0, 18586.0, 18978.0, 18570.0, 18608.0, 19156.0, 18336.0, 19084.0, 18612.0, 18740.0, 18422.0, 18750.0, 19164.0, 18410.0, 19030.0, 18914.0, 18528.0, 18460.0, 19128.0, 18974.0, 18364.0, 18868.0, 18368.0, 18968.0, 18812.0, 18110.0, 19058.0, 18472.0, 18858.0, 18864.0, 18298.0, 18988.0, 19040.0, 19170.0, 18414.0, 18714.0, 19128.0, 19162.0, 18398.0, 18360.0, 19082.0, 18518.0, 18848.0, 18710.0, 19268.0, 18400.0, 18402.0, 19014.0, 19074.0, 18670.0, 18336.0, 18892.0, 19218.0, 18474.0, 18796.0, 18318.0]
    },
    "slices": {}
  }
}