{
  "AcquisitionMatrixPE": 110,
  "AcquisitionNumber": 1,
  "AcquisitionTime": "09:24:6.750000",
  "BandwidthPerPixelPhaseEncode": 12.987,
  "BaseResolution": 110,
  "BodyPartExamined": "BRAIN",
  "CoilCombinationMethod": "Sum of Squares",
  "ConsistencyInfo": "N4_VE11C_LATEST_20160120",
  "ConversionSoftware": "dcm2niix",
  "ConversionSoftwareVersion": "v1.0.20220505",
  "DerivedVendorReportedEchoSpacing": 0.000700001,
  "DeviceSerialNumber": "167006",
  "DiffusionScheme": "Monopolar",
  "DwellTime": 2.7e-06,
  "EchoTime": 0.0768,
  "EchoTrainLength": 83,
  "EffectiveEchoSpacing": 0.000700001,
  "FlipAngle": 78,
  "HeudiconvVersion": "0.5.3.post811+g6206e14",
  "ImageComments": "Unaliased MB3/PE3/LB SENSE1+",
  "ImageOrientationPatientDICOM": [1, 0, 0, 0, 0.940288, -0.34038],
  "ImageOrientationText": "Tra>Cor(-19.9)",
  "ImageType": [
    "ORIGINAL",
    "PRIMARY",
    "DIFFUSION",
    "NONE",
    "MB",
    "ND",
    "MOSAIC"
],
  "ImagingFrequency": 123.259,
  "InPlanePhaseEncodingDirectionDICOM": "COL",
  "InstitutionAddress": "Chemin Queen-Mary 4565,Montreal,District,CA,H3W 1W5",
  "InstitutionName": "IUGM",
  "InstitutionalDepartmentName": "Department",
  "MRAcquisitionType": "2D",
  "MagneticFieldStrength": 3,
  "Manufacturer": "Siemens",
  "ManufacturersModelName": "Prisma_fit",
  "MatrixCoilMode": "SENSE",
  "Modality": "MR",
  "MultibandAccelerationFactor": 3,
  "PartialFourier": 0.75,
  "PatientPosition": "HFS",
  "PercentPhaseFOV": 100,
  "PercentSampling": 100,
  "PhaseEncodingDirection": "j-",
  "PhaseEncodingSteps": 83,
  "PhaseResolution": 1,
  "PixelBandwidth": 1685,
  "ProcedureStepDescription": "anat^generic",
  "ProtocolName": "dMRI_dir106_AP_test_cmrr",
  "PulseSequenceDetails": "%CustomerSeq%\\cmrr_mbep2d_diff",
  "ReceiveCoilActiveElements": "HC1-6",
  "ReceiveCoilName": "HeadNeck_64",
  "ReconMatrixPE": 110,
  "RepetitionTime": 2.243,
  "SAR": 0.118135,
  "ScanOptions": "PFP\\EXT",
  "ScanningSequence": "EP",
  "SequenceName": "ep_b0",
  "SequenceVariant": "SK\\SS",
  "SeriesDescription": "dMRI_dir106_AP_test_cmrr",
  "SeriesNumber": 8,
  "ShimSetting": [600, -7322, -8815, 580, 33, -326, -41, 54],
  "SliceThickness": 2,
  "SliceTiming": [0, 1.17, 0.1175, 1.2875, 0.2325, 1.4025, 0.35, 1.52, 0.4675, 1.6375, 0.585, 1.755, 0.7025, 1.8725, 0.8175, 1.9875, 0.935, 2.105, 1.0525, 0, 1.17, 0.1175, 1.2875, 0.2325, 1.4025, 0.35, 1.52, 0.4675, 1.6375, 0.585, 1.755, 0.7025, 1.8725, 0.8175, 1.9875, 0.935, 2.105, 1.0525, 0, 1.17, 0.1175, 1.2875, 0.2325, 1.4025, 0.35, 1.52, 0.4675, 1.6375, 0.585, 1.755, 0.7025, 1.8725, 0.8175, 1.9875, 0.935, 2.105, 1.0525],
  "SoftwareVersions": "syngo MR E11",
  "SpacingBetweenSlices": 2,
  "StationName": "MRC35049",
  "TotalReadoutTime": 0.0763001,
  "TxRefAmp": 217.947,
  "WipMemBlock": "24483410-0caf-45a3-a973-2802e6225fee||Sequence: R017 ve11c/master r/75a17815+; Jun 28 2022 16:41:33 by eja",
  "dcmmeta_affine": [
    [-2.0, 0.0, 0.0, 109.49686431884766],
    [0.0, 1.880576252937317, -0.680759072303772, -70.1097640991211],
    [0.0, 0.680759072303772, 1.880576252937317, -59.844905853271484],
    [0.0, 0.0, 0.0, 1.0]
],
  "dcmmeta_reorient_transform": [
    [0.0, -1.0, 0.0, 109.0],
    [1.0, 0.0, 0.0, 0.0],
    [0.0, 0.0, 1.0, 0.0],
    [0.0, 0.0, 0.0, 1.0]
],
  "dcmmeta_shape": [110, 110, 57, 107],
  "dcmmeta_slice_dim": 2,
  "dcmmeta_version": 0.6,
  "global": {
    "const": {
      "AcquisitionMatrix": [110, 0, 0, 110],
      "AngioFlag": "N",
      "BitsAllocated": 16,
      "BitsStored": 16,
      "BodyPartExamined": "BRAIN",
      "CardiacNumberOfImages": 1,
      "Columns": 880,
      "EchoNumbers": 1,
      "EchoTime": 76.8,
      "EchoTrainLength": 83,
      "FlipAngle": 78.0,
      "HighBit": 15,
      "ImageOrientationPatient": [1.0, 0.0, 0.0, 0.0, 0.94028812945737, -0.3403795434534],
      "ImagePositionPatient": [-879.49686384201, -858.89490867407, 276.45008252856],
      "ImageType": [
        "ORIGINAL",
        "PRIMARY",
        "DIFFUSION",
        "NONE",
        "MB",
        "ND",
        "MOSAIC"
],
      "ImagedNucleus": "1H",
      "ImagingFrequency": 123.259051,
      "InPlanePhaseEncodingDirection": "COL",
      "MRAcquisitionType": "2D",
      "MagneticFieldStrength": 3.0,
      "Manufacturer": "SIEMENS",
      "ManufacturerModelName": "Prisma_fit",
      "Modality": "MR",
      "NominalInterval": 0,
      "NumberOfAverages": 1.0,
      "NumberOfPhaseEncodingSteps": 83,
      "PercentPhaseFieldOfView": 100.0,
      "PercentSampling": 100.0,
      "PerformedProcedureStepStartTime": "090310.736000",
      "PhotometricInterpretation": "MONOCHROME2",
      "PixelBandwidth": 1685.0,
      "PixelRepresentation": 0,
      "PixelSpacing": [2.0, 2.0],
      "ProtocolName": "dMRI_dir106_AP_test_cmrr",
      "RepetitionTime": 2243.0,
      "Rows": 880,
      "SAR": 0.11813469202743,
      "SamplesPerPixel": 1,
      "ScanOptions": [
        "PFP",
        "EXT"
],
      "ScanningSequence": "EP",
      "SequenceVariant": [
        "SK",
        "SS"
],
      "SeriesDescription": "dMRI_dir106_AP_test_cmrr",
      "SeriesNumber": 8,
      "SeriesTime": "092456.320000",
      "SliceLocation": -32.407525899832,
      "SliceThickness": 2.0,
      "SmallestImagePixelValue": 0,
      "SoftwareVersions": "syngo MR E11",
      "SpacingBetweenSlices": 2.0000000141169,
      "SpecificCharacterSet": "ISO_IR 100",
      "StudyID": "1",
      "StudyTime": "090310.580000",
      "TransmitCoilName": "Body",
      "VariableFlipAngleFlag": "N",
      "WindowCenterWidthExplanation": "Algo1",
      "dBdt": 0.0},
    "slices": {}
  },
  "time": {
    "samples": {
      "AcquisitionNumber": [1, 2, 3, 4, 5, 6, 7, 8, 9, 10, 11, 12, 13, 14, 15, 16, 17, 18, 19, 20, 21, 22, 23, 24, 25, 26, 27, 28, 29, 30, 31, 32, 33, 34, 35, 36, 37, 38, 39, 40, 41, 42, 43, 44, 45, 46, 47, 48, 49, 50, 51, 52, 53, 54, 55, 56, 57, 58, 59, 60, 61, 62, 63, 64, 65, 66, 67, 68, 69, 70, 71, 72, 73, 74, 75, 76, 77, 78, 79, 80, 81, 82, 83, 84, 85, 86, 87, 88, 89, 90, 91, 92, 93, 94, 95, 96, 97, 98, 99, 100, 101, 102, 103, 104, 105, 106, 107],
      "AcquisitionTime": ["092406.750000", "092408.992500", "092411.235000", "092413.477500", "092415.722500", "092417.965000", "092420.207500", "092422.450000", "092424.692500", "092426.937500", "092429.180000", "092431.422500", "092433.665000", "092435.907500", "092438.152500", "092440.395000", "092442.637500", "092444.880000", "092447.122500", "092449.367500", "092451.610000", "092453.852500", "092456.095000", "092458.337500", "092500.582500", "092502.825000", "092505.067500", "092507.310000", "092509.552500", "092511.797500", "092514.040000", "092516.282500", "092518.525000", "092520.767500", "092523.012500", "092525.255000", "092527.497500", "092529.740000", "092531.982500", "092534.227500", "092536.470000", "092538.712500", "092540.955000", "092543.197500", "092545.442500", "092547.685000", "092549.927500", "092552.170000", "092554.412500", "092556.657500", "092558.900000", "092601.142500", "092603.385000", "092605.627500", "092607.872500", "092610.115000", "092612.357500", "092614.600000", "092616.842500", "092619.087500", "092621.330000", "092623.572500", "092625.815000", "092628.057500", "092630.302500", "092632.545000", "092634.787500", "092637.030000", "092639.272500", "092641.517500", "092643.760000", "092646.002500", "092648.245000", "092650.487500", "092652.732500", "092654.975000", "092657.217500", "092659.460000", "092701.702500", "092703.947500", "092706.190000", "092708.432500", "092710.675000", "092712.917500", "092715.162500", "092717.405000", "092719.647500", "092721.890000", "092724.132500", "092726.377500", "092728.620000", "092730.862500", "092733.105000", "092735.347500", "092737.592500", "092739.835000", "092742.077500", "092744.320000", "092746.562500", "092748.807500", "092751.050000", "092753.292500", "092755.535000", "092757.777500", "092800.022500", "092802.265000", "092804.507500"],
      "ContentTime": ["092456.323000", "092456.327000", "092456.330000", "092456.333000", "092456.336000", "092456.339000", "092456.350000", "092456.360000", "092456.363000", "092456.366000", "092456.369000", "092456.372000", "092456.376000", "092456.379000", "092456.382000", "092456.385000", "092456.388000", "092456.391000", "092456.394000", "092456.398000", "092456.401000", "092556.272000", "092556.275000", "092556.279000", "092556.282000", "092556.285000", "092556.288000", "092556.291000", "092556.294000", "092556.298000", "092556.301000", "092556.304000", "092556.307000", "092556.310000", "092556.313000", "092556.317000", "092556.320000", "092556.323000", "092556.326000", "092556.329000", "092556.332000", "092556.335000", "092556.338000", "092556.341000", "092556.344000", "092556.348000", "092556.351000", "092556.354000", "092656.272000", "092656.275000", "092656.279000", "092656.282000", "092656.285000", "092656.288000", "092656.291000", "092656.294000", "092656.298000", "092656.301000", "092656.304000", "092656.307000", "092656.310000", "092656.323000", "092656.326000", "092656.329000", "092656.332000", "092656.335000", "092656.338000", "092656.341000", "092656.345000", "092656.348000", "092656.351000", "092656.354000", "092656.357000", "092656.360000", "092656.364000", "092756.273000", "092756.277000", "092756.280000", "092756.284000", "092756.287000", "092756.290000", "092756.293000", "092756.297000", "092756.300000", "092756.303000", "092756.316000", "092756.319000", "092756.322000", "092756.326000", "092756.329000", "092756.332000", "092756.336000", "092756.339000", "092756.342000", "092756.345000", "092756.348000", "092756.351000", "092756.355000", "092756.358000", "092756.362000", "092756.365000", "092756.368000", "092809.338000", "092809.341000", "092809.344000", "092809.348000", "092809.351000"],
      "InstanceCreationTime": ["092456.323000", "092456.327000", "092456.330000", "092456.333000", "092456.336000", "092456.339000", "092456.350000", "092456.360000", "092456.363000", "092456.366000", "092456.369000", "092456.372000", "092456.376000", "092456.379000", "092456.382000", "092456.385000", "092456.388000", "092456.391000", "092456.394000", "092456.398000", "092456.401000", "092556.272000", "092556.275000", "092556.279000", "092556.282000", "092556.285000", "092556.288000", "092556.291000", "092556.294000", "092556.298000", "092556.301000", "092556.304000", "092556.307000", "092556.310000", "092556.313000", "092556.317000", "092556.320000", "092556.323000", "092556.326000", "092556.329000", "092556.332000", "092556.335000", "092556.338000", "092556.341000", "092556.344000", "092556.348000", "092556.351000", "092556.354000", "092656.272000", "092656.275000", "092656.279000", "092656.282000", "092656.285000", "092656.288000", "092656.291000", "092656.294000", "092656.298000", "092656.301000", "092656.304000", "092656.307000", "092656.310000", "092656.323000", "092656.326000", "092656.329000", "092656.332000", "092656.335000", "092656.338000", "092656.341000", "092656.345000", "092656.348000", "092656.351000", "092656.354000", "092656.357000", "092656.360000", "092656.364000", "092756.273000", "092756.277000", "092756.280000", "092756.284000", "092756.287000", "092756.290000", "092756.293000", "092756.297000", "092756.300000", "092756.303000", "092756.316000", "092756.319000", "092756.322000", "092756.326000", "092756.329000", "092756.332000", "092756.336000", "092756.339000", "092756.342000", "092756.345000", "092756.348000", "092756.351000", "092756.355000", "092756.358000", "092756.362000", "092756.365000", "092756.368000", "092809.338000", "092809.341000", "092809.344000", "092809.348000", "092809.351000"],
      "InstanceNumber": [1, 2, 3, 4, 5, 6, 7, 8, 9, 10, 11, 12, 13, 14, 15, 16, 17, 18, 19, 20, 21, 22, 23, 24, 25, 26, 27, 28, 29, 30, 31, 32, 33, 34, 35, 36, 37, 38, 39, 40, 41, 42, 43, 44, 45, 46, 47, 48, 49, 50, 51, 52, 53, 54, 55, 56, 57, 58, 59, 60, 61, 62, 63, 64, 65, 66, 67, 68, 69, 70, 71, 72, 73, 74, 75, 76, 77, 78, 79, 80, 81, 82, 83, 84, 85, 86, 87, 88, 89, 90, 91, 92, 93, 94, 95, 96, 97, 98, 99, 100, 101, 102, 103, 104, 105, 106, 107],
      "LargestImagePixelValue": [34177, 35967, 12856, 7183, 13460, 11438, 20874, 6626, 6815, 6736, 12275, 21047, 6174, 5936, 6823, 7425, 11850, 6544, 6815, 6952, 5880, 34309, 12389, 6279, 13062, 12842, 7470, 5792, 6118, 6278, 19864, 6759, 11711, 7684, 5864, 19781, 6496, 6511, 11389, 6932, 5923, 35878, 6608, 6598, 6411, 21605, 12331, 6099, 5965, 11166, 6881, 11164, 11163, 6665, 22410, 12244, 6821, 12062, 6137, 6507, 11906, 35752, 11731, 6408, 6653, 6795, 5865, 21426, 12593, 12692, 6004, 6876, 6237, 6372, 10823, 6708, 6919, 6856, 11710, 12374, 7193, 36496, 11425, 6152, 6910, 11833, 12120, 6341, 11923, 6422, 6588, 6113, 10786, 6946, 6474, 6408, 20101, 13067, 6854, 11977, 12635, 35843, 5793, 6000, 11961, 6200, 6544],
      "SequenceName": [
 "ep_b0",
 "ep_b0",
 "ep_b1000#2",
 "ep_b2000#3",
 "ep_b1000#4",
 "ep_b1000#5",
 "ep_b300#6",
 "ep_b2000#7",
 "ep_b2000#8",
 "ep_b2000#9",
 "ep_b1000#10",
 "ep_b300#11",
 "ep_b2000#12",
 "ep_b2000#13",
 "ep_b2000#14",
 "ep_b2000#15",
 "ep_b1000#16",
 "ep_b2000#17",
 "ep_b2000#18",
 "ep_b2000#19",
 "ep_b2000#20",
 "ep_b0",
 "ep_b1000#22",
 "ep_b2000#23",
 "ep_b1000#24",
 "ep_b1000#25",
 "ep_b2000#26",
 "ep_b2000#27",
 "ep_b2000#28",
 "ep_b2000#29",
 "ep_b300#30",
 "ep_b2000#31",
 "ep_b1000#32",
 "ep_b2000#33",
 "ep_b2000#34",
 "ep_b300#35",
 "ep_b2000#36",
 "ep_b2000#37",
 "ep_b1000#38",
 "ep_b2000#39",
 "ep_b2000#40",
 "ep_b0",
 "ep_b2000#42",
 "ep_b2000#43",
 "ep_b2000#44",
 "ep_b300#45",
 "ep_b1000#46",
 "ep_b2000#47",
 "ep_b2000#48",
 "ep_b1000#49",
 "ep_b2000#50",
 "ep_b1000#51",
 "ep_b1000#52",
 "ep_b2000#53",
 "ep_b300#54",
 "ep_b1000#55",
 "ep_b2000#56",
 "ep_b1000#57",
 "ep_b2000#58",
 "ep_b2000#59",
 "ep_b1000#60",
 "ep_b0",
 "ep_b1000#62",
 "ep_b2000#63",
 "ep_b2000#64",
 "ep_b2000#65",
 "ep_b2000#66",
 "ep_b300#67",
 "ep_b1000#68",
 "ep_b1000#69",
 "ep_b2000#70",
 "ep_b2000#71",
 "ep_b2000#72",
 "ep_b2000#73",
 "ep_b1000#74",
 "ep_b2000#75",
 "ep_b2000#76",
 "ep_b2000#77",
 "ep_b1000#78",
 "ep_b1000#79",
 "ep_b2000#80",
 "ep_b0",
 "ep_b1000#82",
 "ep_b2000#83",
 "ep_b2000#84",
 "ep_b1000#85",
 "ep_b1000#86",
 "ep_b2000#87",
 "ep_b1000#88",
 "ep_b2000#89",
 "ep_b2000#90",
 "ep_b2000#91",
 "ep_b1000#92",
 "ep_b2000#93",
 "ep_b2000#94",
 "ep_b2000#95",
 "ep_b300#96",
 "ep_b1000#97",
 "ep_b2000#98",
 "ep_b1000#99",
 "ep_b1000#100",
 "ep_b0",
 "ep_b2000#102",
 "ep_b2000#103",
 "ep_b1000#104",
 "ep_b2000#105",
 "ep_b2000#106"
],
      "TriggerTime": [12837.5, 15080.0, 17322.5, 19565.0, 21807.5, 24052.5, 26295.0, 28537.5, 30780.0, 33022.5, 35267.5, 37510.0, 39752.5, 41995.0, 44237.5, 46482.5, 48725.0, 50967.5, 53210.0, 55452.5, 57697.5, 59940.0, 62182.5, 64425.0, 66667.5, 68912.5, 71155.0, 73397.5, 75640.0, 77882.5, 80127.5, 82370.0, 84612.5, 86855.0, 89097.5, 91342.5, 93585.0, 95827.5, 98070.0, 100312.5, 102557.5, 104800.0, 107042.5, 109285.0, 111527.5, 113772.5, 116015.0, 118257.5, 120500.0, 122742.5, 124987.5, 127230.0, 129472.5, 131715.0, 133957.5, 136202.5, 138445.0, 140687.5, 142930.0, 145172.5, 147417.5, 149660.0, 151902.5, 154145.0, 156387.5, 158632.5, 160875.0, 163117.5, 165360.0, 167602.5, 169847.5, 172090.0, 174332.5, 176575.0, 178817.5, 181062.5, 183305.0, 185547.5, 187790.0, 190032.5, 192277.5, 194520.0, 196762.5, 199005.0, 201247.5, 203492.5, 205735.0, 207977.5, 210220.0, 212462.5, 214707.5, 216950.0, 219192.5, 221435.0, 223677.5, 225922.5, 228165.0, 230407.5, 232650.0, 234892.5, 237137.5, 239380.0, 241622.5, 243865.0, 246107.5, 248352.5, 250595.0],
      "WindowCenter": [6885.0, 6863.0, 3312.0, 2098.0, 3286.0, 3265.0, 5041.0, 2098.0, 2096.0, 2126.0, 3280.0, 4989.0, 2052.0, 2052.0, 2126.0, 2128.0, 3247.0, 2089.0, 2157.0, 2099.0, 2059.0, 6810.0, 3255.0, 2103.0, 3300.0, 3294.0, 2109.0, 2100.0, 2055.0, 2083.0, 5059.0, 2079.0, 3250.0, 2122.0, 2074.0, 5036.0, 2098.0, 2086.0, 3236.0, 2151.0, 2065.0, 6795.0, 2113.0, 2082.0, 2058.0, 4988.0, 3287.0, 2041.0, 2125.0, 3261.0, 2108.0, 3241.0, 3289.0, 2105.0, 5019.0, 3270.0, 2079.0, 3313.0, 2070.0, 2117.0, 3259.0, 6806.0, 3259.0, 2055.0, 2131.0, 2067.0, 2060.0, 5026.0, 3232.0, 3256.0, 2086.0, 2119.0, 2135.0, 2130.0, 3208.0, 2115.0, 2154.0, 2095.0, 3220.0, 3247.0, 2110.0, 6844.0, 3228.0, 2086.0, 2083.0, 3264.0, 3276.0, 2054.0, 3228.0, 2091.0, 2158.0, 2079.0, 3305.0, 2096.0, 2119.0, 2089.0, 5031.0, 3283.0, 2083.0, 3269.0, 3268.0, 6834.0, 2044.0, 2041.0, 3300.0, 2043.0, 2119.0],
      "WindowWidth": [14788.0, 14727.0, 7618.0, 5163.0, 7559.0, 7521.0, 11000.0, 5160.0, 5159.0, 5216.0, 7567.0, 10902.0, 5065.0, 5063.0, 5220.0, 5224.0, 7489.0, 5149.0, 5284.0, 5164.0, 5087.0, 14605.0, 7505.0, 5179.0, 7600.0, 7570.0, 5176.0, 5167.0, 5072.0, 5130.0, 11031.0, 5117.0, 7508.0, 5201.0, 5122.0, 11000.0, 5166.0, 5142.0, 7477.0, 5267.0, 5091.0, 14562.0, 5197.0, 5124.0, 5082.0, 10892.0, 7567.0, 5045.0, 5219.0, 7528.0, 5175.0, 7494.0, 7576.0, 5188.0, 10948.0, 7525.0, 5118.0, 7621.0, 5102.0, 5211.0, 7519.0, 14592.0, 7524.0, 5072.0, 5243.0, 5097.0, 5090.0, 10976.0, 7464.0, 7500.0, 5143.0, 5214.0, 5254.0, 5233.0, 7430.0, 5205.0, 5273.0, 5152.0, 7446.0, 7486.0, 5181.0, 14692.0, 7457.0, 5141.0, 5130.0, 7534.0, 7555.0, 5065.0, 7453.0, 5158.0, 5289.0, 5118.0, 7617.0, 5155.0, 5216.0, 5152.0, 10976.0, 7560.0, 5128.0, 7532.0, 7525.0, 14651.0, 5059.0, 5046.0, 7586.0, 5056.0, 5218.0]
    },
    "slices": {}
  }
}