{
  "AcquisitionMatrixPE": 110,
  "AcquisitionNumber": 1,
  "AcquisitionTime": "09:28:24.087500",
  "BandwidthPerPixelPhaseEncode": 12.987,
  "BaseResolution": 110,
  "BodyPartExamined": "BRAIN",
  "CoilCombinationMethod": "Sum of Squares",
  "ConsistencyInfo": "N4_VE11C_LATEST_20160120",
  "ConversionSoftware": "dcm2niix",
  "ConversionSoftwareVersion": "v1.0.20220505",
  "DerivedVendorReportedEchoSpacing": 0.000700001,
  "DeviceSerialNumber": "167006",
  "DiffusionScheme": "Monopolar",
  "DwellTime": 2.7e-06,
  "EchoTime": 0.0768,
  "EchoTrainLength": 83,
  "EffectiveEchoSpacing": 0.000700001,
  "FlipAngle": 78,
  "HeudiconvVersion": "0.5.3.post811+g6206e14",
  "ImageComments": "Unaliased MB3/PE3/LB SENSE1+",
  "ImageOrientationPatientDICOM": [1, 0, 0, 0, 0.940288, -0.34038],
  "ImageOrientationText": "Tra>Cor(-19.9)",
  "ImageType": [
    "ORIGINAL",
    "PRIMARY",
    "DIFFUSION",
    "NONE",
    "MB",
    "ND",
    "MOSAIC"
],
  "ImagingFrequency": 123.259,
  "InPlanePhaseEncodingDirectionDICOM": "COL",
  "InstitutionAddress": "Chemin Queen-Mary 4565,Montreal,District,CA,H3W 1W5",
  "InstitutionName": "IUGM",
  "InstitutionalDepartmentName": "Department",
  "MRAcquisitionType": "2D",
  "MagneticFieldStrength": 3,
  "Manufacturer": "Siemens",
  "ManufacturersModelName": "Prisma_fit",
  "MatrixCoilMode": "SENSE",
  "Modality": "MR",
  "MultibandAccelerationFactor": 3,
  "PartialFourier": 0.75,
  "PatientPosition": "HFS",
  "PercentPhaseFOV": 100,
  "PercentSampling": 100,
  "PhaseEncodingDirection": "j",
  "PhaseEncodingSteps": 83,
  "PhaseResolution": 1,
  "PixelBandwidth": 1685,
  "ProcedureStepDescription": "anat^generic",
  "ProtocolName": "dMRI_dir106_PA_test_cmrr",
  "PulseSequenceDetails": "%CustomerSeq%\\cmrr_mbep2d_diff",
  "ReceiveCoilActiveElements": "HC1-6",
  "ReceiveCoilName": "HeadNeck_64",
  "ReconMatrixPE": 110,
  "RepetitionTime": 2.243,
  "SAR": 0.118135,
  "ScanOptions": "PFP\\EXT",
  "ScanningSequence": "EP",
  "SequenceName": "ep_b0",
  "SequenceVariant": "SK\\SS",
  "SeriesDescription": "dMRI_dir106_PA_test_cmrr",
  "SeriesNumber": 14,
  "ShimSetting": [600, -7322, -8815, 580, 33, -326, -41, 54],
  "SliceThickness": 2,
  "SliceTiming": [0, 1.17, 0.1175, 1.2875, 0.235, 1.405, 0.3525, 1.5225, 0.4675, 1.6375, 0.585, 1.755, 0.7025, 1.8725, 0.82, 1.99, 0.9375, 2.105, 1.0525, 0, 1.17, 0.1175, 1.2875, 0.235, 1.405, 0.3525, 1.5225, 0.4675, 1.6375, 0.585, 1.755, 0.7025, 1.8725, 0.82, 1.99, 0.9375, 2.105, 1.0525, 0, 1.17, 0.1175, 1.2875, 0.235, 1.405, 0.3525, 1.5225, 0.4675, 1.6375, 0.585, 1.755, 0.7025, 1.8725, 0.82, 1.99, 0.9375, 2.105, 1.0525],
  "SoftwareVersions": "syngo MR E11",
  "SpacingBetweenSlices": 2,
  "StationName": "MRC35049",
  "TotalReadoutTime": 0.0763001,
  "TxRefAmp": 217.947,
  "WipMemBlock": "2bc759fe-2255-4ae7-89d9-2d4ce34405c0||Sequence: R017 ve11c/master r/75a17815+; Jun 28 2022 16:41:33 by eja",
  "dcmmeta_affine": [
    [-2.0, 0.0, 0.0, 109.49686431884766],
    [0.0, 1.880576252937317, -0.680759072303772, -70.1097640991211],
    [0.0, 0.680759072303772, 1.880576252937317, -59.844905853271484],
    [0.0, 0.0, 0.0, 1.0]
],
  "dcmmeta_reorient_transform": [
    [0.0, -1.0, 0.0, 109.0],
    [1.0, 0.0, 0.0, 0.0],
    [0.0, 0.0, 1.0, 0.0],
    [0.0, 0.0, 0.0, 1.0]
],
  "dcmmeta_shape": [110, 110, 57, 107],
  "dcmmeta_slice_dim": 2,
  "dcmmeta_version": 0.6,
  "global": {
    "const": {
      "AcquisitionMatrix": [110, 0, 0, 110],
      "AngioFlag": "N",
      "BitsAllocated": 16,
      "BitsStored": 16,
      "BodyPartExamined": "BRAIN",
      "CardiacNumberOfImages": 1,
      "Columns": 880,
      "EchoNumbers": 1,
      "EchoTime": 76.8,
      "EchoTrainLength": 83,
      "FlipAngle": 78.0,
      "HighBit": 15,
      "ImageOrientationPatient": [1.0, 0.0, 0.0, 0.0, 0.94028812945737, -0.3403795434534],
      "ImagePositionPatient": [-879.49686384201, -858.89490867407, 276.45008252856],
      "ImageType": [
        "ORIGINAL",
        "PRIMARY",
        "DIFFUSION",
        "NONE",
        "MB",
        "ND",
        "MOSAIC"
],
      "ImagedNucleus": "1H",
      "ImagingFrequency": 123.259054,
      "InPlanePhaseEncodingDirection": "COL",
      "LargestImagePixelValue": 4095,
      "MRAcquisitionType": "2D",
      "MagneticFieldStrength": 3.0,
      "Manufacturer": "SIEMENS",
      "ManufacturerModelName": "Prisma_fit",
      "Modality": "MR",
      "NominalInterval": 0,
      "NumberOfAverages": 1.0,
      "NumberOfPhaseEncodingSteps": 83,
      "PercentPhaseFieldOfView": 100.0,
      "PercentSampling": 100.0,
      "PerformedProcedureStepStartTime": "090310.736000",
      "PhotometricInterpretation": "MONOCHROME2",
      "PixelBandwidth": 1685.0,
      "PixelRepresentation": 0,
      "PixelSpacing": [2.0, 2.0],
      "ProtocolName": "dMRI_dir106_PA_test_cmrr",
      "RepetitionTime": 2243.0,
      "RescaleIntercept": -4096.0,
      "RescaleSlope": 2.0,
      "RescaleType": "US",
      "Rows": 880,
      "SAR": 0.11813469202743,
      "SamplesPerPixel": 1,
      "ScanOptions": [
        "PFP",
        "EXT"
],
      "ScanningSequence": "EP",
      "SequenceVariant": [
        "SK",
        "SS"
],
      "SeriesDescription": "dMRI_dir106_PA_test_cmrr",
      "SeriesNumber": 14,
      "SeriesTime": "092916.361000",
      "SliceLocation": -32.407525899832,
      "SliceThickness": 2.0,
      "SmallestImagePixelValue": 0,
      "SoftwareVersions": "syngo MR E11",
      "SpacingBetweenSlices": 2.0000000141169,
      "SpecificCharacterSet": "ISO_IR 100",
      "StudyID": "1",
      "StudyTime": "090310.580000",
      "TransmitCoilName": "Body",
      "VariableFlipAngleFlag": "N",
      "WindowCenterWidthExplanation": "Algo1",
      "dBdt": 0.0},
    "slices": {}
  },
  "time": {
    "samples": {
      "AcquisitionNumber": [1, 2, 3, 4, 5, 6, 7, 8, 9, 10, 11, 12, 13, 14, 15, 16, 17, 18, 19, 20, 21, 22, 23, 24, 25, 26, 27, 28, 29, 30, 31, 32, 33, 34, 35, 36, 37, 38, 39, 40, 41, 42, 43, 44, 45, 46, 47, 48, 49, 50, 51, 52, 53, 54, 55, 56, 57, 58, 59, 60, 61, 62, 63, 64, 65, 66, 67, 68, 69, 70, 71, 72, 73, 74, 75, 76, 77, 78, 79, 80, 81, 82, 83, 84, 85, 86, 87, 88, 89, 90, 91, 92, 93, 94, 95, 96, 97, 98, 99, 100, 101, 102, 103, 104, 105, 106, 107],
      "AcquisitionTime": ["092824.087500", "092826.330000", "092828.575000", "092830.817500", "092833.060000", "092835.302500", "092837.545000", "092839.790000", "092842.032500", "092844.275000", "092846.517500", "092848.760000", "092851.005000", "092853.247500", "092855.490000", "092857.732500", "092859.975000", "092902.220000", "092904.462500", "092906.705000", "092908.947500", "092911.190000", "092913.435000", "092915.677500", "092917.920000", "092920.162500", "092922.405000", "092924.650000", "092926.892500", "092929.135000", "092931.377500", "092933.620000", "092935.865000", "092938.107500", "092940.350000", "092942.592500", "092944.835000", "092947.080000", "092949.322500", "092951.565000", "092953.807500", "092956.050000", "092958.295000", "093000.537500", "093002.780000", "093005.022500", "093007.265000", "093009.510000", "093011.752500", "093013.995000", "093016.237500", "093018.480000", "093020.725000", "093022.967500", "093025.210000", "093027.452500", "093029.695000", "093031.940000", "093034.182500", "093036.425000", "093038.667500", "093040.910000", "093043.155000", "093045.397500", "093047.640000", "093049.882500", "093052.125000", "093054.370000", "093056.612500", "093058.855000", "093101.097500", "093103.340000", "093105.585000", "093107.827500", "093110.070000", "093112.312500", "093114.555000", "093116.800000", "093119.042500", "093121.285000", "093123.527500", "093125.770000", "093128.015000", "093130.257500", "093132.500000", "093134.742500", "093136.985000", "093139.230000", "093141.472500", "093143.715000", "093145.957500", "093148.200000", "093150.445000", "093152.687500", "093154.930000", "093157.172500", "093159.415000", "093201.660000", "093203.902500", "093206.145000", "093208.387500", "093210.630000", "093212.875000", "093215.117500", "093217.360000", "093219.602500", "093221.845000"],
      "ContentTime": ["092916.364000", "092916.367000", "092916.370000", "092916.374000", "092916.377000", "092916.380000", "092916.383000", "092916.386000", "092916.390000", "092916.393000", "092916.396000", "092916.399000", "092916.402000", "092916.405000", "092916.409000", "092916.412000", "092916.415000", "092916.418000", "092916.421000", "092916.425000", "092916.428000", "092916.431000", "092916.434000", "093016.349000", "093016.352000", "093016.355000", "093016.358000", "093016.362000", "093016.381000", "093016.384000", "093016.387000", "093016.390000", "093016.394000", "093016.397000", "093016.400000", "093016.403000", "093016.406000", "093016.409000", "093016.413000", "093016.416000", "093016.419000", "093016.422000", "093016.426000", "093016.429000", "093016.432000", "093016.435000", "093016.438000", "093016.441000", "093016.445000", "093116.340000", "093116.343000", "093116.347000", "093116.350000", "093116.353000", "093116.356000", "093116.359000", "093116.363000", "093116.367000", "093116.370000", "093116.373000", "093116.376000", "093116.379000", "093116.382000", "093116.385000", "093116.389000", "093116.392000", "093116.395000", "093116.398000", "093116.402000", "093116.405000", "093116.408000", "093116.411000", "093116.414000", "093116.418000", "093116.421000", "093116.424000", "093216.333000", "093216.336000", "093216.339000", "093216.342000", "093216.346000", "093216.349000", "093216.352000", "093216.355000", "093216.358000", "093216.362000", "093216.365000", "093216.369000", "093216.372000", "093216.375000", "093216.378000", "093216.381000", "093216.385000", "093216.388000", "093216.391000", "093216.394000", "093216.397000", "093216.401000", "093216.404000", "093216.410000", "093216.414000", "093216.417000", "093216.420000", "093226.149000", "093226.152000", "093226.156000", "093226.159000"],
      "InstanceCreationTime": ["092916.364000", "092916.367000", "092916.370000", "092916.374000", "092916.377000", "092916.380000", "092916.383000", "092916.386000", "092916.390000", "092916.393000", "092916.396000", "092916.399000", "092916.402000", "092916.405000", "092916.409000", "092916.412000", "092916.415000", "092916.418000", "092916.421000", "092916.425000", "092916.428000", "092916.431000", "092916.434000", "093016.349000", "093016.352000", "093016.355000", "093016.358000", "093016.362000", "093016.381000", "093016.384000", "093016.387000", "093016.390000", "093016.394000", "093016.397000", "093016.400000", "093016.403000", "093016.406000", "093016.409000", "093016.413000", "093016.416000", "093016.419000", "093016.422000", "093016.426000", "093016.429000", "093016.432000", "093016.435000", "093016.438000", "093016.441000", "093016.445000", "093116.340000", "093116.343000", "093116.347000", "093116.350000", "093116.353000", "093116.356000", "093116.359000", "093116.363000", "093116.367000", "093116.370000", "093116.373000", "093116.376000", "093116.379000", "093116.382000", "093116.385000", "093116.389000", "093116.392000", "093116.395000", "093116.398000", "093116.402000", "093116.405000", "093116.408000", "093116.411000", "093116.414000", "093116.418000", "093116.421000", "093116.424000", "093216.333000", "093216.336000", "093216.339000", "093216.342000", "093216.346000", "093216.349000", "093216.352000", "093216.355000", "093216.358000", "093216.362000", "093216.365000", "093216.369000", "093216.372000", "093216.375000", "093216.378000", "093216.381000", "093216.385000", "093216.388000", "093216.391000", "093216.394000", "093216.397000", "093216.401000", "093216.404000", "093216.410000", "093216.414000", "093216.417000", "093216.420000", "093226.149000", "093226.152000", "093226.156000", "093226.159000"],
      "InstanceNumber": [1, 2, 3, 4, 5, 6, 7, 8, 9, 10, 11, 12, 13, 14, 15, 16, 17, 18, 19, 20, 21, 22, 23, 24, 25, 26, 27, 28, 29, 30, 31, 32, 33, 34, 35, 36, 37, 38, 39, 40, 41, 42, 43, 44, 45, 46, 47, 48, 49, 50, 51, 52, 53, 54, 55, 56, 57, 58, 59, 60, 61, 62, 63, 64, 65, 66, 67, 68, 69, 70, 71, 72, 73, 74, 75, 76, 77, 78, 79, 80, 81, 82, 83, 84, 85, 86, 87, 88, 89, 90, 91, 92, 93, 94, 95, 96, 97, 98, 99, 100, 101, 102, 103, 104, 105, 106, 107],
      "SequenceName": [
 "ep_b0",
 "ep_b0",
 "ep_b1000#2",
 "ep_b2000#3",
 "ep_b1000#4",
 "ep_b1000#5",
 "ep_b300#6",
 "ep_b2000#7",
 "ep_b2000#8",
 "ep_b2000#9",
 "ep_b1000#10",
 "ep_b300#11",
 "ep_b2000#12",
 "ep_b2000#13",
 "ep_b2000#14",
 "ep_b2000#15",
 "ep_b1000#16",
 "ep_b2000#17",
 "ep_b2000#18",
 "ep_b2000#19",
 "ep_b2000#20",
 "ep_b0",
 "ep_b1000#22",
 "ep_b2000#23",
 "ep_b1000#24",
 "ep_b1000#25",
 "ep_b2000#26",
 "ep_b2000#27",
 "ep_b2000#28",
 "ep_b2000#29",
 "ep_b300#30",
 "ep_b2000#31",
 "ep_b1000#32",
 "ep_b2000#33",
 "ep_b2000#34",
 "ep_b300#35",
 "ep_b2000#36",
 "ep_b2000#37",
 "ep_b1000#38",
 "ep_b2000#39",
 "ep_b2000#40",
 "ep_b0",
 "ep_b2000#42",
 "ep_b2000#43",
 "ep_b2000#44",
 "ep_b300#45",
 "ep_b1000#46",
 "ep_b2000#47",
 "ep_b2000#48",
 "ep_b1000#49",
 "ep_b2000#50",
 "ep_b1000#51",
 "ep_b1000#52",
 "ep_b2000#53",
 "ep_b300#54",
 "ep_b1000#55",
 "ep_b2000#56",
 "ep_b1000#57",
 "ep_b2000#58",
 "ep_b2000#59",
 "ep_b1000#60",
 "ep_b0",
 "ep_b1000#62",
 "ep_b2000#63",
 "ep_b2000#64",
 "ep_b2000#65",
 "ep_b2000#66",
 "ep_b300#67",
 "ep_b1000#68",
 "ep_b1000#69",
 "ep_b2000#70",
 "ep_b2000#71",
 "ep_b2000#72",
 "ep_b2000#73",
 "ep_b1000#74",
 "ep_b2000#75",
 "ep_b2000#76",
 "ep_b2000#77",
 "ep_b1000#78",
 "ep_b1000#79",
 "ep_b2000#80",
 "ep_b0",
 "ep_b1000#82",
 "ep_b2000#83",
 "ep_b2000#84",
 "ep_b1000#85",
 "ep_b1000#86",
 "ep_b2000#87",
 "ep_b1000#88",
 "ep_b2000#89",
 "ep_b2000#90",
 "ep_b2000#91",
 "ep_b1000#92",
 "ep_b2000#93",
 "ep_b2000#94",
 "ep_b2000#95",
 "ep_b300#96",
 "ep_b1000#97",
 "ep_b2000#98",
 "ep_b1000#99",
 "ep_b1000#100",
 "ep_b0",
 "ep_b2000#102",
 "ep_b2000#103",
 "ep_b1000#104",
 "ep_b2000#105",
 "ep_b2000#106"
],
      "TriggerTime": [12837.5, 15080.0, 17322.5, 19567.5, 21810.0, 24052.5, 26295.0, 28537.5, 30782.5, 33025.0, 35267.5, 37510.0, 39752.5, 41997.5, 44240.0, 46482.5, 48725.0, 50967.5, 53212.5, 55455.0, 57697.5, 59940.0, 62182.5, 64427.5, 66670.0, 68912.5, 71155.0, 73397.5, 75642.5, 77885.0, 80127.5, 82370.0, 84612.5, 86857.5, 89100.0, 91342.5, 93585.0, 95827.5, 98072.5, 100315.0, 102557.5, 104800.0, 107042.5, 109287.5, 111530.0, 113772.5, 116015.0, 118257.5, 120502.5, 122745.0, 124987.5, 127230.0, 129472.5, 131717.5, 133960.0, 136202.5, 138445.0, 140687.5, 142932.5, 145175.0, 147417.5, 149660.0, 151902.5, 154147.5, 156390.0, 158632.5, 160875.0, 163117.5, 165362.5, 167605.0, 169847.5, 172090.0, 174332.5, 176577.5, 178820.0, 181062.5, 183305.0, 185547.5, 187792.5, 190035.0, 192277.5, 194520.0, 196762.5, 199007.5, 201250.0, 203492.5, 205735.0, 207977.5, 210222.5, 212465.0, 214707.5, 216950.0, 219192.5, 221437.5, 223680.0, 225922.5, 228165.0, 230407.5, 232652.5, 234895.0, 237137.5, 239380.0, 241622.5, 243867.5, 246110.0, 248352.5, 250595.0],
      "WindowCenter": [4690.0, 4692.0, 4660.0, 4608.0, 4844.0, 4850.0, 4838.0, 4614.0, 4758.0, 4780.0, 5050.0, 4700.0, 4940.0, 4918.0, 5022.0, 4946.0, 5070.0, 4968.0, 4704.0, 5076.0, 4600.0, 4652.0, 5006.0, 4836.0, 4884.0, 4850.0, 5006.0, 4782.0, 4970.0, 4752.0, 4860.0, 4542.0, 4838.0, 4910.0, 4984.0, 4674.0, 5044.0, 4754.0, 5096.0, 4896.0, 4980.0, 4650.0, 4866.0, 4486.0, 4946.0, 4792.0, 4574.0, 4822.0, 4806.0, 4746.0, 5020.0, 5050.0, 4798.0, 4962.0, 4786.0, 4900.0, 5004.0, 4456.0, 5012.0, 4758.0, 4958.0, 4816.0, 4910.0, 5086.0, 4704.0, 4984.0, 4826.0, 4748.0, 4490.0, 5068.0, 4908.0, 4788.0, 5022.0, 4752.0, 4940.0, 4920.0, 4672.0, 4860.0, 4602.0, 4782.0, 4598.0, 4692.0, 5104.0, 4968.0, 5054.0, 4800.0, 4832.0, 5054.0, 5146.0, 4536.0, 4676.0, 5066.0, 4772.0, 4976.0, 4790.0, 4982.0, 4736.0, 4680.0, 4694.0, 5036.0, 4730.0, 4756.0, 4670.0, 5022.0, 4758.0, 4534.0, 4596.0],
      "WindowWidth": [18288.0, 18290.0, 18402.0, 18438.0, 18618.0, 18630.0, 18494.0, 18450.0, 18624.0, 18604.0, 18864.0, 18366.0, 18850.0, 18864.0, 18988.0, 18832.0, 18868.0, 18848.0, 18538.0, 19104.0, 18448.0, 18260.0, 18920.0, 18680.0, 18744.0, 18580.0, 18930.0, 18558.0, 19034.0, 18704.0, 18560.0, 18314.0, 18686.0, 18754.0, 18826.0, 18344.0, 19168.0, 18682.0, 18948.0, 18764.0, 18812.0, 18268.0, 18780.0, 18290.0, 18992.0, 18550.0, 18300.0, 18698.0, 18588.0, 18564.0, 19078.0, 19060.0, 18542.0, 18842.0, 18512.0, 18648.0, 18962.0, 18198.0, 19088.0, 18560.0, 18718.0, 18426.0, 18636.0, 19156.0, 18568.0, 19100.0, 18700.0, 18470.0, 18202.0, 18892.0, 18696.0, 18670.0, 18990.0, 18610.0, 18770.0, 18766.0, 18532.0, 18738.0, 18374.0, 18570.0, 18410.0, 18296.0, 18962.0, 19076.0, 19122.0, 18588.0, 18580.0, 19060.0, 19026.0, 18442.0, 18536.0, 18928.0, 18548.0, 19124.0, 18594.0, 19070.0, 18404.0, 18440.0, 18544.0, 18882.0, 18478.0, 18358.0, 18498.0, 19128.0, 18514.0, 18360.0, 18442.0]
    },
    "slices": {}
  }
}