{
  "AcquisitionMatrixPE": 110,
  "AcquisitionNumber": 1,
  "AcquisitionTime": "11:07:32.495000",
  "BandwidthPerPixelPhaseEncode": 12.987,
  "BaseResolution": 110,
  "BodyPartExamined": "BRAIN",
  "CoilCombinationMethod": "Sum of Squares",
  "ConsistencyInfo": "N4_VE11C_LATEST_20160120",
  "ConversionSoftware": "dcm2niix",
  "ConversionSoftwareVersion": "v1.0.20220505",
  "DerivedVendorReportedEchoSpacing": 0.000700001,
  "DeviceSerialNumber": "167006",
  "DiffusionScheme": "Monopolar",
  "DwellTime": 2.7e-06,
  "EchoTime": 0.0768,
  "EchoTrainLength": 83,
  "EffectiveEchoSpacing": 0.000700001,
  "FlipAngle": 78,
  "HeudiconvVersion": "0.5.3.post811+g6206e14",
  "ImageComments": "Unaliased MB3/PE3/LB SENSE1+",
  "ImageOrientationPatientDICOM": [0.998806, 0.0464589, -0.0150954, -0.0488498, 0.949921, -0.308648],
  "ImageOrientationText": "Tra>Cor(-18.0)",
  "ImageType": [
    "ORIGINAL",
    "PRIMARY",
    "DIFFUSION",
    "NONE",
    "MB",
    "ND",
    "MOSAIC"
],
  "ImagingFrequency": 123.259,
  "InPlanePhaseEncodingDirectionDICOM": "COL",
  "InstitutionAddress": "Chemin Queen-Mary 4565,Montreal,District,CA,H3W 1W5",
  "InstitutionName": "IUGM",
  "InstitutionalDepartmentName": "Department",
  "MRAcquisitionType": "2D",
  "MagneticFieldStrength": 3,
  "Manufacturer": "Siemens",
  "ManufacturersModelName": "Prisma_fit",
  "MatrixCoilMode": "SENSE",
  "Modality": "MR",
  "MultibandAccelerationFactor": 3,
  "PartialFourier": 0.75,
  "PatientPosition": "HFS",
  "PercentPhaseFOV": 100,
  "PercentSampling": 100,
  "PhaseEncodingDirection": "j-",
  "PhaseEncodingSteps": 83,
  "PhaseResolution": 1,
  "PixelBandwidth": 1685,
  "ProcedureStepDescription": "anat^generic",
  "ProtocolName": "dMRI_dir106_AP_test_cmrr",
  "PulseSequenceDetails": "%CustomerSeq%\\cmrr_mbep2d_diff",
  "ReceiveCoilActiveElements": "HC1-7",
  "ReceiveCoilName": "HeadNeck_64",
  "ReconMatrixPE": 110,
  "RepetitionTime": 2.243,
  "SAR": 0.163584,
  "ScanOptions": "PFP\\EXT",
  "ScanningSequence": "EP",
  "SequenceName": "ep_b0",
  "SequenceVariant": "SK\\SS",
  "SeriesDescription": "dMRI_dir106_AP_test_cmrr",
  "SeriesNumber": 8,
  "ShimSetting": [605, -7237, -8785, 677, 117, -16, -89, 50],
  "SliceThickness": 2,
  "SliceTiming": [0, 1.17, 0.115, 1.285, 0.2325, 1.4025, 0.35, 1.52, 0.4675, 1.6375, 0.585, 1.755, 0.7, 1.87, 0.8175, 1.9875, 0.935, 2.105, 1.0525, 0, 1.17, 0.115, 1.285, 0.2325, 1.4025, 0.35, 1.52, 0.4675, 1.6375, 0.585, 1.755, 0.7, 1.87, 0.8175, 1.9875, 0.935, 2.105, 1.0525, 0, 1.17, 0.115, 1.285, 0.2325, 1.4025, 0.35, 1.52, 0.4675, 1.6375, 0.585, 1.755, 0.7, 1.87, 0.8175, 1.9875, 0.935, 2.105, 1.0525],
  "SoftwareVersions": "syngo MR E11",
  "SpacingBetweenSlices": 2,
  "StationName": "MRC35049",
  "TotalReadoutTime": 0.0763001,
  "TxRefAmp": 253.86,
  "WipMemBlock": "d6d4c19c-c587-45fa-a9c0-f2a02cca5ecf||Sequence: R017 ve11c/master r/75a17815+; Jun 28 2022 16:41:33 by eja",
  "dcmmeta_affine": [
    [-1.9976122379302979, -0.0976995900273323, 9.20584497521304e-09, 115.31932830810547],
    [-0.09291782975196838, 1.8998421430587769, -0.6180340051651001, -72.54154205322266],
    [-0.03019082359969616, 0.6172961592674255, 1.9021130800247192, -55.22507858276367],
    [0.0, 0.0, 0.0, 1.0]
],
  "dcmmeta_reorient_transform": [
    [0.0, -1.0, 0.0, 109.0],
    [1.0, 0.0, 0.0, 0.0],
    [0.0, 0.0, 1.0, 0.0],
    [0.0, 0.0, 0.0, 1.0]
],
  "dcmmeta_shape": [110, 110, 57, 107],
  "dcmmeta_slice_dim": 2,
  "dcmmeta_version": 0.6,
  "global": {
    "const": {
      "AcquisitionMatrix": [110, 0, 0, 110],
      "AngioFlag": "N",
      "BitsAllocated": 16,
      "BitsStored": 16,
      "BodyPartExamined": "BRAIN",
      "CardiacNumberOfImages": 1,
      "Columns": 880,
      "EchoNumbers": 1,
      "EchoTime": 76.8,
      "EchoTrainLength": 83,
      "FlipAngle": 78.0,
      "HighBit": 15,
      "ImageOrientationPatient": [0.99880613619556, 0.04645891548175, -0.0150954122287, -0.0488497932247, 0.94992108212916, -0.3086480769881],
      "ImagePositionPatient": [-836.13645705887, -901.75384911525, 261.34269008173],
      "ImageType": [
        "ORIGINAL",
        "PRIMARY",
        "DIFFUSION",
        "NONE",
        "MB",
        "ND",
        "MOSAIC"
],
      "ImagedNucleus": "1H",
      "ImagingFrequency": 123.259155,
      "InPlanePhaseEncodingDirection": "COL",
      "MRAcquisitionType": "2D",
      "MagneticFieldStrength": 3.0,
      "Manufacturer": "SIEMENS",
      "ManufacturerModelName": "Prisma_fit",
      "Modality": "MR",
      "NominalInterval": 0,
      "NumberOfAverages": 1.0,
      "NumberOfPhaseEncodingSteps": 83,
      "PercentPhaseFieldOfView": 100.0,
      "PercentSampling": 100.0,
      "PerformedProcedureStepStartTime": "104033.347000",
      "PhotometricInterpretation": "MONOCHROME2",
      "PixelBandwidth": 1685.0,
      "PixelRepresentation": 0,
      "PixelSpacing": [2.0, 2.0],
      "ProtocolName": "dMRI_dir106_AP_test_cmrr",
      "RepetitionTime": 2243.0,
      "Rows": 880,
      "SAR": 0.16358438155563,
      "SamplesPerPixel": 1,
      "ScanOptions": [
        "PFP",
        "EXT"
],
      "ScanningSequence": "EP",
      "SequenceVariant": [
        "SK",
        "SS"
],
      "SeriesDescription": "dMRI_dir106_AP_test_cmrr",
      "SeriesNumber": 8,
      "SeriesTime": "110837.303000",
      "SliceLocation": -30.105598406256,
      "SliceThickness": 2.0,
      "SmallestImagePixelValue": 0,
      "SoftwareVersions": "syngo MR E11",
      "SpacingBetweenSlices": 2.000000033989,
      "SpecificCharacterSet": "ISO_IR 100",
      "StudyID": "1",
      "StudyTime": "104033.272000",
      "TransmitCoilName": "Body",
      "VariableFlipAngleFlag": "N",
      "WindowCenterWidthExplanation": "Algo1",
      "dBdt": 0.0},
    "slices": {}
  },
  "time": {
    "samples": {
      "AcquisitionNumber": [1, 2, 3, 4, 5, 6, 7, 8, 9, 10, 11, 12, 13, 14, 15, 16, 17, 18, 19, 20, 21, 22, 23, 24, 25, 26, 27, 28, 29, 30, 31, 32, 33, 34, 35, 36, 37, 38, 39, 40, 41, 42, 43, 44, 45, 46, 47, 48, 49, 50, 51, 52, 53, 54, 55, 56, 57, 58, 59, 60, 61, 62, 63, 64, 65, 66, 67, 68, 69, 70, 71, 72, 73, 74, 75, 76, 77, 78, 79, 80, 81, 82, 83, 84, 85, 86, 87, 88, 89, 90, 91, 92, 93, 94, 95, 96, 97, 98, 99, 100, 101, 102, 103, 104, 105, 106, 107],
      "AcquisitionTime": ["110732.495000", "110734.737500", "110736.980000", "110739.222500", "110741.465000", "110743.710000", "110745.952500", "110748.195000", "110750.437500", "110752.680000", "110754.925000", "110757.167500", "110759.410000", "110801.652500", "110803.895000", "110806.140000", "110808.382500", "110810.625000", "110812.867500", "110815.110000", "110817.355000", "110819.597500", "110821.840000", "110824.082500", "110826.325000", "110828.570000", "110830.812500", "110833.055000", "110835.297500", "110837.540000", "110839.785000", "110842.027500", "110844.270000", "110846.512500", "110848.755000", "110851.000000", "110853.242500", "110855.485000", "110857.727500", "110859.970000", "110902.215000", "110904.457500", "110906.700000", "110908.942500", "110911.185000", "110913.430000", "110915.672500", "110917.915000", "110920.157500", "110922.400000", "110924.645000", "110926.887500", "110929.130000", "110931.372500", "110933.615000", "110935.860000", "110938.102500", "110940.345000", "110942.587500", "110944.830000", "110947.075000", "110949.317500", "110951.560000", "110953.802500", "110956.045000", "110958.290000", "111000.532500", "111002.775000", "111005.017500", "111007.260000", "111009.505000", "111011.747500", "111013.990000", "111016.232500", "111018.475000", "111020.720000", "111022.962500", "111025.205000", "111027.447500", "111029.690000", "111031.935000", "111034.177500", "111036.420000", "111038.662500", "111040.905000", "111043.150000", "111045.392500", "111047.635000", "111049.877500", "111052.120000", "111054.365000", "111056.607500", "111058.850000", "111101.092500", "111103.335000", "111105.580000", "111107.822500", "111110.065000", "111112.307500", "111114.550000", "111116.795000", "111119.037500", "111121.280000", "111123.522500", "111125.765000", "111128.010000", "111130.252500"],
      "ContentTime": ["110837.306000", "110837.310000", "110837.313000", "110837.316000", "110837.319000", "110837.323000", "110837.335000", "110837.339000", "110837.342000", "110837.345000", "110837.349000", "110837.352000", "110837.355000", "110837.358000", "110837.362000", "110837.365000", "110837.368000", "110837.371000", "110837.374000", "110837.377000", "110837.381000", "110837.384000", "110837.387000", "110837.390000", "110837.393000", "110837.396000", "110837.400000", "110837.403000", "110857.264000", "110857.268000", "110857.271000", "110857.274000", "110857.277000", "110857.281000", "110857.284000", "110857.287000", "110857.290000", "110957.263000", "110957.267000", "110957.270000", "110957.273000", "110957.288000", "110957.291000", "110957.295000", "110957.298000", "110957.301000", "110957.304000", "110957.308000", "110957.311000", "110957.314000", "110957.317000", "110957.320000", "110957.324000", "110957.327000", "110957.330000", "110957.333000", "110957.336000", "110957.340000", "110957.343000", "110957.346000", "110957.349000", "110957.352000", "110957.356000", "110957.359000", "111057.264000", "111057.275000", "111057.278000", "111057.282000", "111057.285000", "111057.288000", "111057.291000", "111057.294000", "111057.297000", "111057.301000", "111057.304000", "111057.307000", "111057.310000", "111057.313000", "111057.317000", "111057.320000", "111057.323000", "111057.326000", "111057.329000", "111057.333000", "111057.336000", "111057.348000", "111057.351000", "111057.355000", "111057.358000", "111057.361000", "111135.181000", "111135.185000", "111135.193000", "111135.196000", "111135.199000", "111135.203000", "111135.214000", "111135.226000", "111135.229000", "111135.232000", "111135.238000", "111135.241000", "111135.245000", "111135.252000", "111135.256000", "111135.259000", "111135.262000"],
      "InstanceCreationTime": ["110837.306000", "110837.310000", "110837.313000", "110837.316000", "110837.319000", "110837.323000", "110837.335000", "110837.339000", "110837.342000", "110837.345000", "110837.349000", "110837.352000", "110837.355000", "110837.358000", "110837.362000", "110837.365000", "110837.368000", "110837.371000", "110837.374000", "110837.377000", "110837.381000", "110837.384000", "110837.387000", "110837.390000", "110837.393000", "110837.396000", "110837.400000", "110837.403000", "110857.264000", "110857.268000", "110857.271000", "110857.274000", "110857.277000", "110857.281000", "110857.284000", "110857.287000", "110857.290000", "110957.263000", "110957.267000", "110957.270000", "110957.273000", "110957.288000", "110957.291000", "110957.295000", "110957.298000", "110957.301000", "110957.304000", "110957.308000", "110957.311000", "110957.314000", "110957.317000", "110957.320000", "110957.324000", "110957.327000", "110957.330000", "110957.333000", "110957.336000", "110957.340000", "110957.343000", "110957.346000", "110957.349000", "110957.352000", "110957.356000", "110957.359000", "111057.264000", "111057.275000", "111057.278000", "111057.282000", "111057.285000", "111057.288000", "111057.291000", "111057.294000", "111057.297000", "111057.301000", "111057.304000", "111057.307000", "111057.310000", "111057.313000", "111057.317000", "111057.320000", "111057.323000", "111057.326000", "111057.329000", "111057.333000", "111057.336000", "111057.348000", "111057.351000", "111057.355000", "111057.358000", "111057.361000", "111135.181000", "111135.185000", "111135.193000", "111135.196000", "111135.199000", "111135.203000", "111135.214000", "111135.226000", "111135.229000", "111135.232000", "111135.238000", "111135.241000", "111135.245000", "111135.252000", "111135.256000", "111135.259000", "111135.262000"],
      "InstanceNumber": [1, 2, 3, 4, 5, 6, 7, 8, 9, 10, 11, 12, 13, 14, 15, 16, 17, 18, 19, 20, 21, 22, 23, 24, 25, 26, 27, 28, 29, 30, 31, 32, 33, 34, 35, 36, 37, 38, 39, 40, 41, 42, 43, 44, 45, 46, 47, 48, 49, 50, 51, 52, 53, 54, 55, 56, 57, 58, 59, 60, 61, 62, 63, 64, 65, 66, 67, 68, 69, 70, 71, 72, 73, 74, 75, 76, 77, 78, 79, 80, 81, 82, 83, 84, 85, 86, 87, 88, 89, 90, 91, 92, 93, 94, 95, 96, 97, 98, 99, 100, 101, 102, 103, 104, 105, 106, 107],
      "LargestImagePixelValue": [50956, 49887, 18130, 8487, 16853, 16924, 30070, 9698, 10341, 9559, 18533, 28826, 8896, 10420, 9636, 8332, 17098, 9098, 10321, 10538, 9560, 49118, 18098, 9727, 18708, 16007, 10014, 9710, 11016, 9471, 27464, 9770, 18770, 9338, 8333, 27774, 11600, 9653, 18371, 9984, 10500, 48632, 10145, 9833, 10941, 30121, 17741, 9766, 9497, 16061, 11084, 18205, 15969, 10769, 30472, 16427, 9191, 17002, 10594, 9834, 17001, 65535, 15751, 10146, 9205, 10094, 9894, 31123, 17532, 16806, 9412, 9061, 9893, 8444, 17696, 8503, 9199, 9424, 17267, 16073, 10051, 48730, 17707, 11165, 9295, 16298, 17582, 10016, 17384, 9401, 9744, 8783, 17087, 10284, 9468, 10255, 29779, 16501, 10446, 16913, 16849, 56903, 9537, 10494, 17148, 10771, 9969],
      "SequenceName": [
 "ep_b0",
 "ep_b0",
 "ep_b1000#2",
 "ep_b2000#3",
 "ep_b1000#4",
 "ep_b1000#5",
 "ep_b300#6",
 "ep_b2000#7",
 "ep_b2000#8",
 "ep_b2000#9",
 "ep_b1000#10",
 "ep_b300#11",
 "ep_b2000#12",
 "ep_b2000#13",
 "ep_b2000#14",
 "ep_b2000#15",
 "ep_b1000#16",
 "ep_b2000#17",
 "ep_b2000#18",
 "ep_b2000#19",
 "ep_b2000#20",
 "ep_b0",
 "ep_b1000#22",
 "ep_b2000#23",
 "ep_b1000#24",
 "ep_b1000#25",
 "ep_b2000#26",
 "ep_b2000#27",
 "ep_b2000#28",
 "ep_b2000#29",
 "ep_b300#30",
 "ep_b2000#31",
 "ep_b1000#32",
 "ep_b2000#33",
 "ep_b2000#34",
 "ep_b300#35",
 "ep_b2000#36",
 "ep_b2000#37",
 "ep_b1000#38",
 "ep_b2000#39",
 "ep_b2000#40",
 "ep_b0",
 "ep_b2000#42",
 "ep_b2000#43",
 "ep_b2000#44",
 "ep_b300#45",
 "ep_b1000#46",
 "ep_b2000#47",
 "ep_b2000#48",
 "ep_b1000#49",
 "ep_b2000#50",
 "ep_b1000#51",
 "ep_b1000#52",
 "ep_b2000#53",
 "ep_b300#54",
 "ep_b1000#55",
 "ep_b2000#56",
 "ep_b1000#57",
 "ep_b2000#58",
 "ep_b2000#59",
 "ep_b1000#60",
 "ep_b0",
 "ep_b1000#62",
 "ep_b2000#63",
 "ep_b2000#64",
 "ep_b2000#65",
 "ep_b2000#66",
 "ep_b300#67",
 "ep_b1000#68",
 "ep_b1000#69",
 "ep_b2000#70",
 "ep_b2000#71",
 "ep_b2000#72",
 "ep_b2000#73",
 "ep_b1000#74",
 "ep_b2000#75",
 "ep_b2000#76",
 "ep_b2000#77",
 "ep_b1000#78",
 "ep_b1000#79",
 "ep_b2000#80",
 "ep_b0",
 "ep_b1000#82",
 "ep_b2000#83",
 "ep_b2000#84",
 "ep_b1000#85",
 "ep_b1000#86",
 "ep_b2000#87",
 "ep_b1000#88",
 "ep_b2000#89",
 "ep_b2000#90",
 "ep_b2000#91",
 "ep_b1000#92",
 "ep_b2000#93",
 "ep_b2000#94",
 "ep_b2000#95",
 "ep_b300#96",
 "ep_b1000#97",
 "ep_b2000#98",
 "ep_b1000#99",
 "ep_b1000#100",
 "ep_b0",
 "ep_b2000#102",
 "ep_b2000#103",
 "ep_b1000#104",
 "ep_b2000#105",
 "ep_b2000#106"
],
      "TriggerTime": [12835.0, 15080.0, 17322.5, 19565.0, 21807.5, 24050.0, 26295.0, 28537.5, 30780.0, 33022.5, 35265.0, 37510.0, 39752.5, 41995.0, 44237.5, 46480.0, 48725.0, 50967.5, 53210.0, 55452.5, 57695.0, 59940.0, 62182.5, 64425.0, 66667.5, 68910.0, 71155.0, 73397.5, 75640.0, 77882.5, 80125.0, 82370.0, 84612.5, 86855.0, 89097.5, 91340.0, 93585.0, 95827.5, 98070.0, 100312.5, 102555.0, 104800.0, 107042.5, 109285.0, 111527.5, 113770.0, 116015.0, 118257.5, 120500.0, 122742.5, 124985.0, 127230.0, 129472.5, 131715.0, 133957.5, 136200.0, 138445.0, 140687.5, 142930.0, 145172.5, 147415.0, 149660.0, 151902.5, 154145.0, 156387.5, 158630.0, 160875.0, 163117.5, 165360.0, 167602.5, 169845.0, 172090.0, 174332.5, 176575.0, 178817.5, 181060.0, 183305.0, 185547.5, 187790.0, 190032.5, 192275.0, 194520.0, 196762.5, 199005.0, 201247.5, 203490.0, 205735.0, 207977.5, 210220.0, 212462.5, 214705.0, 216950.0, 219192.5, 221435.0, 223677.5, 225920.0, 228165.0, 230407.5, 232650.0, 234892.5, 237135.0, 239380.0, 241622.5, 243865.0, 246107.5, 248350.0, 250595.0],
      "WindowCenter": [7443.0, 7424.0, 3673.0, 2339.0, 3651.0, 3664.0, 5585.0, 2357.0, 2352.0, 2395.0, 3649.0, 5536.0, 2329.0, 2348.0, 2382.0, 2341.0, 3641.0, 2351.0, 2444.0, 2356.0, 2345.0, 7373.0, 3625.0, 2376.0, 3661.0, 3639.0, 2342.0, 2404.0, 2366.0, 2339.0, 5592.0, 2325.0, 3664.0, 2345.0, 2359.0, 5567.0, 2404.0, 2358.0, 3633.0, 2421.0, 2374.0, 7344.0, 2380.0, 2335.0, 2352.0, 5545.0, 3676.0, 2336.0, 2431.0, 3634.0, 2383.0, 3640.0, 3693.0, 2381.0, 5544.0, 3639.0, 2322.0, 3693.0, 2364.0, 2392.0, 3638.0, 7515.0, 3630.0, 2348.0, 2393.0, 2326.0, 2366.0, 5557.0, 3600.0, 3607.0, 2378.0, 2359.0, 2416.0, 2375.0, 3615.0, 2360.0, 2394.0, 2331.0, 3608.0, 3591.0, 2352.0, 7355.0, 3624.0, 2406.0, 2327.0, 3628.0, 3634.0, 2350.0, 3614.0, 2360.0, 2422.0, 2350.0, 3672.0, 2349.0, 2406.0, 2340.0, 5566.0, 3632.0, 2330.0, 3650.0, 3635.0, 7398.0, 2321.0, 2333.0, 3678.0, 2320.0, 2371.0],
      "WindowWidth": [15993.0, 15956.0, 8338.0, 5694.0, 8315.0, 8332.0, 12124.0, 5712.0, 5695.0, 5779.0, 8300.0, 12030.0, 5656.0, 5676.0, 5763.0, 5705.0, 8288.0, 5715.0, 5860.0, 5706.0, 5685.0, 15842.0, 8253.0, 5741.0, 8315.0, 8293.0, 5683.0, 5789.0, 5711.0, 5676.0, 12136.0, 5642.0, 8324.0, 5704.0, 5724.0, 12091.0, 5785.0, 5718.0, 8271.0, 5828.0, 5723.0, 15779.0, 5738.0, 5650.0, 5686.0, 12044.0, 8347.0, 5658.0, 5842.0, 8287.0, 5762.0, 8291.0, 8386.0, 5744.0, 12043.0, 8288.0, 5656.0, 8382.0, 5710.0, 5762.0, 8278.0, 16225.0, 8277.0, 5679.0, 5769.0, 5648.0, 5715.0, 12060.0, 8211.0, 8224.0, 5740.0, 5716.0, 5809.0, 5756.0, 8246.0, 5723.0, 5776.0, 5674.0, 8230.0, 8201.0, 5717.0, 15794.0, 8264.0, 5788.0, 5657.0, 8277.0, 8268.0, 5682.0, 8241.0, 5716.0, 5824.0, 5692.0, 8341.0, 5692.0, 5790.0, 5670.0, 12071.0, 8278.0, 5664.0, 8305.0, 8275.0, 15851.0, 5626.0, 5647.0, 8348.0, 5627.0, 5725.0]
    },
    "slices": {}
  }
}