{
  "AcquisitionMatrixPE": 110,
  "AcquisitionNumber": 1,
  "AcquisitionTime": "11:11:53.437500",
  "BandwidthPerPixelPhaseEncode": 12.987,
  "BaseResolution": 110,
  "BodyPartExamined": "BRAIN",
  "CoilCombinationMethod": "Sum of Squares",
  "ConsistencyInfo": "N4_VE11C_LATEST_20160120",
  "ConversionSoftware": "dcm2niix",
  "ConversionSoftwareVersion": "v1.0.20220505",
  "DerivedVendorReportedEchoSpacing": 0.000700001,
  "DeviceSerialNumber": "167006",
  "DiffusionScheme": "Monopolar",
  "DwellTime": 2.7e-06,
  "EchoTime": 0.0768,
  "EchoTrainLength": 83,
  "EffectiveEchoSpacing": 0.000700001,
  "FlipAngle": 78,
  "HeudiconvVersion": "0.5.3.post811+g6206e14",
  "ImageComments": "Unaliased MB3/PE3/LB SENSE1+",
  "ImageOrientationPatientDICOM": [0.998806, 0.0464589, -0.0150954, -0.0488498, 0.949921, -0.308648],
  "ImageOrientationText": "Tra>Cor(-18.0)",
  "ImageType": [
    "ORIGINAL",
    "PRIMARY",
    "DIFFUSION",
    "NONE",
    "MB",
    "ND",
    "MOSAIC"
],
  "ImagingFrequency": 123.259,
  "InPlanePhaseEncodingDirectionDICOM": "COL",
  "InstitutionAddress": "Chemin Queen-Mary 4565,Montreal,District,CA,H3W 1W5",
  "InstitutionName": "IUGM",
  "InstitutionalDepartmentName": "Department",
  "MRAcquisitionType": "2D",
  "MagneticFieldStrength": 3,
  "Manufacturer": "Siemens",
  "ManufacturersModelName": "Prisma_fit",
  "MatrixCoilMode": "SENSE",
  "Modality": "MR",
  "MultibandAccelerationFactor": 3,
  "PartialFourier": 0.75,
  "PatientPosition": "HFS",
  "PercentPhaseFOV": 100,
  "PercentSampling": 100,
  "PhaseEncodingDirection": "j",
  "PhaseEncodingSteps": 83,
  "PhaseResolution": 1,
  "PixelBandwidth": 1685,
  "ProcedureStepDescription": "anat^generic",
  "ProtocolName": "dMRI_dir106_PA_test_cmrr",
  "PulseSequenceDetails": "%CustomerSeq%\\cmrr_mbep2d_diff",
  "ReceiveCoilActiveElements": "HC1-7",
  "ReceiveCoilName": "HeadNeck_64",
  "ReconMatrixPE": 110,
  "RepetitionTime": 2.243,
  "SAR": 0.163584,
  "ScanOptions": "PFP\\EXT",
  "ScanningSequence": "EP",
  "SequenceName": "ep_b0",
  "SequenceVariant": "SK\\SS",
  "SeriesDescription": "dMRI_dir106_PA_test_cmrr",
  "SeriesNumber": 14,
  "ShimSetting": [605, -7237, -8785, 677, 117, -16, -89, 50],
  "SliceThickness": 2,
  "SliceTiming": [0, 1.17, 0.115, 1.285, 0.2325, 1.4025, 0.35, 1.52, 0.4675, 1.6375, 0.585, 1.755, 0.7, 1.87, 0.8175, 1.9875, 0.935, 2.105, 1.0525, 0, 1.17, 0.115, 1.285, 0.2325, 1.4025, 0.35, 1.52, 0.4675, 1.6375, 0.585, 1.755, 0.7, 1.87, 0.8175, 1.9875, 0.935, 2.105, 1.0525, 0, 1.17, 0.115, 1.285, 0.2325, 1.4025, 0.35, 1.52, 0.4675, 1.6375, 0.585, 1.755, 0.7, 1.87, 0.8175, 1.9875, 0.935, 2.105, 1.0525],
  "SoftwareVersions": "syngo MR E11",
  "SpacingBetweenSlices": 2,
  "StationName": "MRC35049",
  "TotalReadoutTime": 0.0763001,
  "TxRefAmp": 253.86,
  "WipMemBlock": "0117eb01-fdcd-4236-b15e-a0b156120784||Sequence: R017 ve11c/master r/75a17815+; Jun 28 2022 16:41:33 by eja",
  "dcmmeta_affine": [
    [-1.9976122379302979, -0.0976995900273323, 9.20584497521304e-09, 115.31932830810547],
    [-0.09291782975196838, 1.8998421430587769, -0.6180340051651001, -72.54154205322266],
    [-0.03019082359969616, 0.6172961592674255, 1.9021130800247192, -55.22507858276367],
    [0.0, 0.0, 0.0, 1.0]
],
  "dcmmeta_reorient_transform": [
    [0.0, -1.0, 0.0, 109.0],
    [1.0, 0.0, 0.0, 0.0],
    [0.0, 0.0, 1.0, 0.0],
    [0.0, 0.0, 0.0, 1.0]
],
  "dcmmeta_shape": [110, 110, 57, 107],
  "dcmmeta_slice_dim": 2,
  "dcmmeta_version": 0.6,
  "global": {
    "const": {
      "AcquisitionMatrix": [110, 0, 0, 110],
      "AngioFlag": "N",
      "BitsAllocated": 16,
      "BitsStored": 16,
      "BodyPartExamined": "BRAIN",
      "CardiacNumberOfImages": 1,
      "Columns": 880,
      "EchoNumbers": 1,
      "EchoTime": 76.8,
      "EchoTrainLength": 83,
      "FlipAngle": 78.0,
      "HighBit": 15,
      "ImageOrientationPatient": [0.99880613619556, 0.04645891548175, -0.0150954122287, -0.0488497932247, 0.94992108212916, -0.3086480769881],
      "ImagePositionPatient": [-836.13645705887, -901.75384911525, 261.34269008173],
      "ImageType": [
        "ORIGINAL",
        "PRIMARY",
        "DIFFUSION",
        "NONE",
        "MB",
        "ND",
        "MOSAIC"
],
      "ImagedNucleus": "1H",
      "ImagingFrequency": 123.259158,
      "InPlanePhaseEncodingDirection": "COL",
      "LargestImagePixelValue": 4095,
      "MRAcquisitionType": "2D",
      "MagneticFieldStrength": 3.0,
      "Manufacturer": "SIEMENS",
      "ManufacturerModelName": "Prisma_fit",
      "Modality": "MR",
      "NominalInterval": 0,
      "NumberOfAverages": 1.0,
      "NumberOfPhaseEncodingSteps": 83,
      "PercentPhaseFieldOfView": 100.0,
      "PercentSampling": 100.0,
      "PerformedProcedureStepStartTime": "104033.347000",
      "PhotometricInterpretation": "MONOCHROME2",
      "PixelBandwidth": 1685.0,
      "PixelRepresentation": 0,
      "PixelSpacing": [2.0, 2.0],
      "ProtocolName": "dMRI_dir106_PA_test_cmrr",
      "RepetitionTime": 2243.0,
      "RescaleIntercept": -4096.0,
      "RescaleSlope": 2.0,
      "RescaleType": "US",
      "Rows": 880,
      "SAR": 0.16358438155563,
      "SamplesPerPixel": 1,
      "ScanOptions": [
        "PFP",
        "EXT"
],
      "ScanningSequence": "EP",
      "SequenceVariant": [
        "SK",
        "SS"
],
      "SeriesDescription": "dMRI_dir106_PA_test_cmrr",
      "SeriesNumber": 14,
      "SeriesTime": "111257.286000",
      "SliceLocation": -30.105598406256,
      "SliceThickness": 2.0,
      "SmallestImagePixelValue": 0,
      "SoftwareVersions": "syngo MR E11",
      "SpacingBetweenSlices": 2.000000033989,
      "SpecificCharacterSet": "ISO_IR 100",
      "StudyID": "1",
      "StudyTime": "104033.272000",
      "TransmitCoilName": "Body",
      "VariableFlipAngleFlag": "N",
      "WindowCenter": 2294.0,
      "WindowCenterWidthExplanation": "WINDOW1",
      "WindowWidth": 10708.0,
      "dBdt": 0.0},
    "slices": {}
  },
  "time": {
    "samples": {
      "AcquisitionNumber": [1, 2, 3, 4, 5, 6, 7, 8, 9, 10, 11, 12, 13, 14, 15, 16, 17, 18, 19, 20, 21, 22, 23, 24, 25, 26, 27, 28, 29, 30, 31, 32, 33, 34, 35, 36, 37, 38, 39, 40, 41, 42, 43, 44, 45, 46, 47, 48, 49, 50, 51, 52, 53, 54, 55, 56, 57, 58, 59, 60, 61, 62, 63, 64, 65, 66, 67, 68, 69, 70, 71, 72, 73, 74, 75, 76, 77, 78, 79, 80, 81, 82, 83, 84, 85, 86, 87, 88, 89, 90, 91, 92, 93, 94, 95, 96, 97, 98, 99, 100, 101, 102, 103, 104, 105, 106, 107],
      "AcquisitionTime": ["111153.437500", "111155.680000", "111157.922500", "111200.165000", "111202.407500", "111204.652500", "111206.895000", "111209.137500", "111211.380000", "111213.622500", "111215.867500", "111218.110000", "111220.352500", "111222.595000", "111224.837500", "111227.082500", "111229.325000", "111231.567500", "111233.810000", "111236.052500", "111238.297500", "111240.540000", "111242.782500", "111245.025000", "111247.267500", "111249.512500", "111251.755000", "111253.997500", "111256.240000", "111258.482500", "111300.727500", "111302.970000", "111305.212500", "111307.455000", "111309.697500", "111311.942500", "111314.185000", "111316.427500", "111318.670000", "111320.912500", "111323.157500", "111325.400000", "111327.642500", "111329.885000", "111332.127500", "111334.372500", "111336.615000", "111338.857500", "111341.100000", "111343.342500", "111345.587500", "111347.830000", "111350.072500", "111352.315000", "111354.557500", "111356.802500", "111359.045000", "111401.287500", "111403.530000", "111405.772500", "111408.017500", "111410.260000", "111412.502500", "111414.745000", "111416.987500", "111419.232500", "111421.475000", "111423.717500", "111425.960000", "111428.202500", "111430.447500", "111432.690000", "111434.932500", "111437.175000", "111439.417500", "111441.662500", "111443.905000", "111446.147500", "111448.390000", "111450.632500", "111452.877500", "111455.120000", "111457.362500", "111459.605000", "111501.847500", "111504.092500", "111506.335000", "111508.577500", "111510.820000", "111513.062500", "111515.307500", "111517.550000", "111519.792500", "111522.035000", "111524.277500", "111526.522500", "111528.765000", "111531.007500", "111533.250000", "111535.492500", "111537.737500", "111539.980000", "111542.222500", "111544.465000", "111546.707500", "111548.952500", "111551.195000"],
      "ContentTime": ["111257.288000", "111257.291000", "111257.295000", "111257.298000", "111257.301000", "111257.304000", "111257.308000", "111257.311000", "111257.314000", "111257.317000", "111257.321000", "111257.324000", "111257.327000", "111257.330000", "111257.334000", "111257.337000", "111257.340000", "111257.343000", "111257.346000", "111257.350000", "111257.359000", "111257.362000", "111257.365000", "111257.368000", "111257.371000", "111257.375000", "111257.378000", "111257.381000", "111357.273000", "111357.277000", "111357.280000", "111357.283000", "111357.286000", "111357.290000", "111357.293000", "111357.296000", "111357.300000", "111357.303000", "111357.306000", "111357.310000", "111357.313000", "111357.316000", "111357.319000", "111357.322000", "111357.326000", "111357.329000", "111357.332000", "111357.335000", "111357.339000", "111357.342000", "111357.345000", "111357.348000", "111357.352000", "111357.355000", "111457.260000", "111457.263000", "111457.266000", "111457.269000", "111457.278000", "111457.281000", "111457.285000", "111457.288000", "111457.291000", "111457.294000", "111457.297000", "111457.301000", "111457.304000", "111457.307000", "111457.311000", "111457.314000", "111457.317000", "111457.320000", "111457.323000", "111457.327000", "111457.330000", "111457.333000", "111457.337000", "111457.340000", "111457.343000", "111457.360000", "111457.363000", "111556.516000", "111556.520000", "111556.523000", "111556.526000", "111556.529000", "111556.546000", "111556.549000", "111556.552000", "111556.556000", "111556.559000", "111556.562000", "111556.566000", "111556.569000", "111556.572000", "111556.576000", "111556.579000", "111556.582000", "111556.585000", "111556.589000", "111556.592000", "111556.595000", "111556.598000", "111556.601000", "111556.605000", "111556.608000", "111556.611000"],
      "InstanceCreationTime": ["111257.288000", "111257.291000", "111257.295000", "111257.298000", "111257.301000", "111257.304000", "111257.308000", "111257.311000", "111257.314000", "111257.317000", "111257.321000", "111257.324000", "111257.327000", "111257.330000", "111257.334000", "111257.337000", "111257.340000", "111257.343000", "111257.346000", "111257.350000", "111257.359000", "111257.362000", "111257.365000", "111257.368000", "111257.371000", "111257.375000", "111257.378000", "111257.381000", "111357.273000", "111357.277000", "111357.280000", "111357.283000", "111357.286000", "111357.290000", "111357.293000", "111357.296000", "111357.300000", "111357.303000", "111357.306000", "111357.310000", "111357.313000", "111357.316000", "111357.319000", "111357.322000", "111357.326000", "111357.329000", "111357.332000", "111357.335000", "111357.339000", "111357.342000", "111357.345000", "111357.348000", "111357.352000", "111357.355000", "111457.260000", "111457.263000", "111457.266000", "111457.269000", "111457.278000", "111457.281000", "111457.285000", "111457.288000", "111457.291000", "111457.294000", "111457.297000", "111457.301000", "111457.304000", "111457.307000", "111457.311000", "111457.314000", "111457.317000", "111457.320000", "111457.323000", "111457.327000", "111457.330000", "111457.333000", "111457.337000", "111457.340000", "111457.343000", "111457.360000", "111457.363000", "111556.516000", "111556.520000", "111556.523000", "111556.526000", "111556.529000", "111556.546000", "111556.549000", "111556.552000", "111556.556000", "111556.559000", "111556.562000", "111556.566000", "111556.569000", "111556.572000", "111556.576000", "111556.579000", "111556.582000", "111556.585000", "111556.589000", "111556.592000", "111556.595000", "111556.598000", "111556.601000", "111556.605000", "111556.608000", "111556.611000"],
      "InstanceNumber": [1, 2, 3, 4, 5, 6, 7, 8, 9, 10, 11, 12, 13, 14, 15, 16, 17, 18, 19, 20, 21, 22, 23, 24, 25, 26, 27, 28, 29, 30, 31, 32, 33, 34, 35, 36, 37, 38, 39, 40, 41, 42, 43, 44, 45, 46, 47, 48, 49, 50, 51, 52, 53, 54, 55, 56, 57, 58, 59, 60, 61, 62, 63, 64, 65, 66, 67, 68, 69, 70, 71, 72, 73, 74, 75, 76, 77, 78, 79, 80, 81, 82, 83, 84, 85, 86, 87, 88, 89, 90, 91, 92, 93, 94, 95, 96, 97, 98, 99, 100, 101, 102, 103, 104, 105, 106, 107],
      "SequenceName": [
 "ep_b0",
 "ep_b0",
 "ep_b1000#2",
 "ep_b2000#3",
 "ep_b1000#4",
 "ep_b1000#5",
 "ep_b300#6",
 "ep_b2000#7",
 "ep_b2000#8",
 "ep_b2000#9",
 "ep_b1000#10",
 "ep_b300#11",
 "ep_b2000#12",
 "ep_b2000#13",
 "ep_b2000#14",
 "ep_b2000#15",
 "ep_b1000#16",
 "ep_b2000#17",
 "ep_b2000#18",
 "ep_b2000#19",
 "ep_b2000#20",
 "ep_b0",
 "ep_b1000#22",
 "ep_b2000#23",
 "ep_b1000#24",
 "ep_b1000#25",
 "ep_b2000#26",
 "ep_b2000#27",
 "ep_b2000#28",
 "ep_b2000#29",
 "ep_b300#30",
 "ep_b2000#31",
 "ep_b1000#32",
 "ep_b2000#33",
 "ep_b2000#34",
 "ep_b300#35",
 "ep_b2000#36",
 "ep_b2000#37",
 "ep_b1000#38",
 "ep_b2000#39",
 "ep_b2000#40",
 "ep_b0",
 "ep_b2000#42",
 "ep_b2000#43",
 "ep_b2000#44",
 "ep_b300#45",
 "ep_b1000#46",
 "ep_b2000#47",
 "ep_b2000#48",
 "ep_b1000#49",
 "ep_b2000#50",
 "ep_b1000#51",
 "ep_b1000#52",
 "ep_b2000#53",
 "ep_b300#54",
 "ep_b1000#55",
 "ep_b2000#56",
 "ep_b1000#57",
 "ep_b2000#58",
 "ep_b2000#59",
 "ep_b1000#60",
 "ep_b0",
 "ep_b1000#62",
 "ep_b2000#63",
 "ep_b2000#64",
 "ep_b2000#65",
 "ep_b2000#66",
 "ep_b300#67",
 "ep_b1000#68",
 "ep_b1000#69",
 "ep_b2000#70",
 "ep_b2000#71",
 "ep_b2000#72",
 "ep_b2000#73",
 "ep_b1000#74",
 "ep_b2000#75",
 "ep_b2000#76",
 "ep_b2000#77",
 "ep_b1000#78",
 "ep_b1000#79",
 "ep_b2000#80",
 "ep_b0",
 "ep_b1000#82",
 "ep_b2000#83",
 "ep_b2000#84",
 "ep_b1000#85",
 "ep_b1000#86",
 "ep_b2000#87",
 "ep_b1000#88",
 "ep_b2000#89",
 "ep_b2000#90",
 "ep_b2000#91",
 "ep_b1000#92",
 "ep_b2000#93",
 "ep_b2000#94",
 "ep_b2000#95",
 "ep_b300#96",
 "ep_b1000#97",
 "ep_b2000#98",
 "ep_b1000#99",
 "ep_b1000#100",
 "ep_b0",
 "ep_b2000#102",
 "ep_b2000#103",
 "ep_b1000#104",
 "ep_b2000#105",
 "ep_b2000#106"
],
      "TriggerTime": [12835.0, 15080.0, 17322.5, 19565.0, 21807.5, 24050.0, 26295.0, 28537.5, 30780.0, 33022.5, 35265.0, 37510.0, 39752.5, 41995.0, 44237.5, 46480.0, 48725.0, 50967.5, 53210.0, 55452.5, 57695.0, 59940.0, 62182.5, 64425.0, 66667.5, 68910.0, 71155.0, 73397.5, 75640.0, 77882.5, 80125.0, 82370.0, 84612.5, 86855.0, 89097.5, 91340.0, 93585.0, 95827.5, 98070.0, 100312.5, 102555.0, 104800.0, 107042.5, 109285.0, 111527.5, 113770.0, 116015.0, 118257.5, 120500.0, 122742.5, 124985.0, 127230.0, 129472.5, 131715.0, 133957.5, 136200.0, 138445.0, 140687.5, 142930.0, 145172.5, 147415.0, 149660.0, 151902.5, 154145.0, 156387.5, 158630.0, 160875.0, 163117.5, 165360.0, 167602.5, 169845.0, 172090.0, 174332.5, 176575.0, 178817.5, 181060.0, 183305.0, 185547.5, 187790.0, 190032.5, 192275.0, 194520.0, 196762.5, 199005.0, 201247.5, 203490.0, 205735.0, 207977.5, 210220.0, 212462.5, 214705.0, 216950.0, 219192.5, 221435.0, 223677.5, 225920.0, 228165.0, 230407.5, 232650.0, 234892.5, 237135.0, 239380.0, 241622.5, 243865.0, 246107.5, 248350.0, 250595.0]
    },
    "slices": {}
  }
}