{
  "AcquisitionMatrixPE": 110,
  "AcquisitionNumber": 1,
  "AcquisitionTime": "16:03:27.600000",
  "BandwidthPerPixelPhaseEncode": 12.987,
  "BaseResolution": 110,
  "BodyPartExamined": "BRAIN",
  "CoilCombinationMethod": "Sum of Squares",
  "ConsistencyInfo": "N4_VE11C_LATEST_20160120",
  "ConversionSoftware": "dcm2niix",
  "ConversionSoftwareVersion": "v1.0.20211006",
  "DerivedVendorReportedEchoSpacing": 0.000700001,
  "DeviceSerialNumber": "167006",
  "DiffusionScheme": "Monopolar",
  "DwellTime": 2.7e-06,
  "EchoTime": 0.0768,
  "EchoTrainLength": 83,
  "EffectiveEchoSpacing": 0.000700001,
  "FlipAngle": 78,
  "HeudiconvVersion": "0.5.3.post569+g418601f",
  "ImageComments": "Unaliased MB3/PE3/LB SENSE1+",
  "ImageOrientationPatientDICOM": [0.999848, -0.0163999, 0.00596906, 0.0174524, 0.93955, -0.341968],
  "ImageOrientationText": "Tra>Cor(-20.0)",
  "ImageType": [
    "ORIGINAL",
    "PRIMARY",
    "DIFFUSION",
    "NONE",
    "MB",
    "ND",
    "MOSAIC"
],
  "ImagingFrequency": 123.259,
  "InPlanePhaseEncodingDirectionDICOM": "COL",
  "InstitutionAddress": "Chemin Queen-Mary 4565,Montreal,District,CA,H3W 1W5",
  "InstitutionName": "IUGM",
  "InstitutionalDepartmentName": "Department",
  "MRAcquisitionType": "2D",
  "MagneticFieldStrength": 3,
  "Manufacturer": "Siemens",
  "ManufacturersModelName": "Prisma_fit",
  "MatrixCoilMode": "SENSE",
  "Modality": "MR",
  "MultibandAccelerationFactor": 3,
  "PartialFourier": 0.75,
  "PatientPosition": "HFS",
  "PercentPhaseFOV": 100,
  "PercentSampling": 100,
  "PhaseEncodingDirection": "j",
  "PhaseEncodingSteps": 83,
  "PhaseResolution": 1,
  "PixelBandwidth": 1685,
  "ProcedureStepDescription": "anat^generic",
  "ProtocolName": "dMRI_dir106_PA_test_cmrr",
  "PulseSequenceDetails": "%CustomerSeq%\\cmrr_mbep2d_diff",
  "ReceiveCoilActiveElements": "HC1-7",
  "ReceiveCoilName": "HeadNeck_64",
  "ReconMatrixPE": 110,
  "RepetitionTime": 2.243,
  "SAR": 0.118011,
  "ScanOptions": "PFP\\EXT",
  "ScanningSequence": "EP",
  "SequenceName": "ep_b5#1",
  "SequenceVariant": "SK\\SS",
  "SeriesDescription": "dMRI_dir106_PA_test_cmrr",
  "SeriesNumber": 13,
  "ShimSetting": [619, -7286, -8823, 594, 17, -319, -14, -1],
  "SliceThickness": 2,
  "SliceTiming": [0, 1.17, 0.1175, 1.2875, 0.235, 1.405, 0.3525, 1.52, 0.4675, 1.6375, 0.585, 1.755, 0.7025, 1.8725, 0.82, 1.99, 0.935, 2.105, 1.0525, 0, 1.17, 0.1175, 1.2875, 0.235, 1.405, 0.3525, 1.52, 0.4675, 1.6375, 0.585, 1.755, 0.7025, 1.8725, 0.82, 1.99, 0.935, 2.105, 1.0525, 0, 1.17, 0.1175, 1.2875, 0.235, 1.405, 0.3525, 1.52, 0.4675, 1.6375, 0.585, 1.755, 0.7025, 1.8725, 0.82, 1.99, 0.935, 2.105, 1.0525],
  "SoftwareVersions": "syngo MR E11",
  "SpacingBetweenSlices": 2,
  "StationName": "MRC35049",
  "TotalReadoutTime": 0.0763001,
  "TxRefAmp": 217.037,
  "WipMemBlock": "3041cf19-0020-4180-97c7-49b260c6cc8f||Sequence: R016 ve11c/master r/e634e98; Dec 19 2017 11:11:25 by eja",
  "dcmmeta_affine": [
    [-1.9996954202651978, 0.034904781728982925, -1.2888625278151267e-08, 107.30499267578125],
    [0.032799772918224335, 1.8790990114212036, -0.6840403079986572, -74.62739562988281],
    [0.011938126757740974, 0.6839361190795898, 1.879385232925415, -66.15130615234375],
    [0.0, 0.0, 0.0, 1.0]
],
  "dcmmeta_reorient_transform": [
    [0.0, -1.0, 0.0, 109.0],
    [1.0, 0.0, 0.0, 0.0],
    [0.0, 0.0, 1.0, 0.0],
    [0.0, 0.0, 0.0, 1.0]
],
  "dcmmeta_shape": [110, 110, 57, 107],
  "dcmmeta_slice_dim": 2,
  "dcmmeta_version": 0.6,
  "global": {
    "const": {
      "AcquisitionMatrix": [110, 0, 0, 110],
      "AngioFlag": "N",
      "BitsAllocated": 16,
      "BitsStored": 16,
      "BodyPartExamined": "BRAIN",
      "CardiacNumberOfImages": 1,
      "Columns": 880,
      "EchoNumbers": 1,
      "EchoTime": 76.8,
      "EchoTrainLength": 83,
      "FlipAngle": 78.0,
      "HighBit": 15,
      "ImageOrientationPatient": [0.99984769541472, -0.016399885862, 0.00596906337616, 0.01745239163769, 0.93954950247002, -0.3419680488503],
      "ImagePositionPatient": [-894.4306776894, -841.01959848237, 267.11694863264],
      "ImageType": [
        "ORIGINAL",
        "PRIMARY",
        "DIFFUSION",
        "NONE",
        "MB",
        "ND",
        "MOSAIC"
],
      "ImagedNucleus": "1H",
      "ImagingFrequency": 123.258688,
      "InPlanePhaseEncodingDirection": "COL",
      "MRAcquisitionType": "2D",
      "MagneticFieldStrength": 3.0,
      "Manufacturer": "SIEMENS",
      "ManufacturerModelName": "Prisma_fit",
      "Modality": "MR",
      "NominalInterval": 0,
      "NumberOfAverages": 1.0,
      "NumberOfPhaseEncodingSteps": 83,
      "PercentPhaseFieldOfView": 100.0,
      "PercentSampling": 100.0,
      "PerformedProcedureStepStartTime": "153517.378000",
      "PhotometricInterpretation": "MONOCHROME2",
      "PixelBandwidth": 1685.0,
      "PixelRepresentation": 0,
      "PixelSpacing": [2.0, 2.0],
      "ProtocolName": "dMRI_dir106_PA_test_cmrr",
      "RepetitionTime": 2243.0,
      "Rows": 880,
      "SAR": 0.11801067182805,
      "SamplesPerPixel": 1,
      "ScanOptions": [
        "PFP",
        "EXT"
],
      "ScanningSequence": "EP",
      "SequenceVariant": [
        "SK",
        "SS"
],
      "SeriesDescription": "dMRI_dir106_PA_test_cmrr",
      "SeriesNumber": 13,
      "SeriesTime": "160425.694000",
      "SliceLocation": -36.637820720807,
      "SliceThickness": 2.0,
      "SmallestImagePixelValue": 0,
      "SoftwareVersions": "syngo MR E11",
      "SpacingBetweenSlices": 2.0000000515386,
      "SpecificCharacterSet": "ISO_IR 100",
      "StudyID": "1",
      "StudyTime": "153517.289000",
      "TransmitCoilName": "Body",
      "VariableFlipAngleFlag": "N",
      "WindowCenterWidthExplanation": "Algo1",
      "dBdt": 0.0},
    "slices": {}
  },
  "time": {
    "samples": {
      "AcquisitionNumber": [1, 2, 3, 4, 5, 6, 7, 8, 9, 10, 11, 12, 13, 14, 15, 16, 17, 18, 19, 20, 21, 22, 23, 24, 25, 26, 27, 28, 29, 30, 31, 32, 33, 34, 35, 36, 37, 38, 39, 40, 41, 42, 43, 44, 45, 46, 47, 48, 49, 50, 51, 52, 53, 54, 55, 56, 57, 58, 59, 60, 61, 62, 63, 64, 65, 66, 67, 68, 69, 70, 71, 72, 73, 74, 75, 76, 77, 78, 79, 80, 81, 82, 83, 84, 85, 86, 87, 88, 89, 90, 91, 92, 93, 94, 95, 96, 97, 98, 99, 100, 101, 102, 103, 104, 105, 106, 107],
      "AcquisitionTime": ["160327.600000", "160329.842500", "160332.087500", "160334.330000", "160336.572500", "160338.815000", "160341.057500", "160343.302500", "160345.545000", "160347.787500", "160350.030000", "160352.272500", "160354.517500", "160356.760000", "160359.002500", "160401.245000", "160403.487500", "160405.732500", "160407.975000", "160410.217500", "160412.460000", "160414.702500", "160416.947500", "160419.190000", "160421.432500", "160423.675000", "160425.917500", "160428.162500", "160430.405000", "160432.647500", "160434.890000", "160437.132500", "160439.377500", "160441.620000", "160443.862500", "160446.105000", "160448.347500", "160450.592500", "160452.835000", "160455.077500", "160457.320000", "160459.562500", "160501.807500", "160504.050000", "160506.292500", "160508.535000", "160510.777500", "160513.022500", "160515.265000", "160517.507500", "160519.750000", "160521.992500", "160524.237500", "160526.480000", "160528.722500", "160530.965000", "160533.207500", "160535.452500", "160537.695000", "160539.937500", "160542.180000", "160544.422500", "160546.667500", "160548.910000", "160551.152500", "160553.395000", "160555.637500", "160557.882500", "160600.125000", "160602.367500", "160604.610000", "160606.852500", "160609.097500", "160611.340000", "160613.582500", "160615.825000", "160618.067500", "160620.312500", "160622.555000", "160624.797500", "160627.040000", "160629.282500", "160631.527500", "160633.770000", "160636.012500", "160638.255000", "160640.497500", "160642.742500", "160644.985000", "160647.227500", "160649.470000", "160651.712500", "160653.957500", "160656.200000", "160658.442500", "160700.685000", "160702.927500", "160705.172500", "160707.415000", "160709.657500", "160711.900000", "160714.142500", "160716.387500", "160718.630000", "160720.872500", "160723.115000", "160725.357500"],
      "ContentTime": ["160425.697000", "160425.700000", "160425.703000", "160425.706000", "160425.709000", "160425.712000", "160425.716000", "160425.719000", "160425.722000", "160425.725000", "160425.728000", "160425.731000", "160425.734000", "160425.737000", "160425.740000", "160425.743000", "160425.746000", "160425.749000", "160425.752000", "160425.755000", "160425.758000", "160425.765000", "160425.768000", "160425.771000", "160425.774000", "160525.639000", "160525.642000", "160525.645000", "160525.649000", "160525.652000", "160525.655000", "160525.658000", "160525.661000", "160525.664000", "160525.667000", "160525.670000", "160525.673000", "160525.676000", "160525.679000", "160525.682000", "160525.685000", "160525.688000", "160525.691000", "160525.694000", "160525.697000", "160525.700000", "160525.703000", "160525.706000", "160525.709000", "160525.712000", "160525.715000", "160525.718000", "160605.639000", "160605.642000", "160605.646000", "160605.649000", "160605.666000", "160605.669000", "160605.672000", "160605.675000", "160605.679000", "160605.681000", "160605.685000", "160605.688000", "160605.691000", "160605.694000", "160605.697000", "160605.700000", "160605.703000", "160605.706000", "160705.639000", "160705.642000", "160705.645000", "160705.649000", "160705.652000", "160705.655000", "160705.664000", "160705.667000", "160705.677000", "160705.680000", "160705.683000", "160705.686000", "160705.689000", "160705.692000", "160705.696000", "160705.699000", "160705.702000", "160705.705000", "160705.708000", "160705.711000", "160705.714000", "160705.717000", "160705.720000", "160705.724000", "160705.727000", "160705.730000", "160730.273000", "160730.276000", "160730.279000", "160730.282000", "160730.293000", "160730.296000", "160730.299000", "160730.302000", "160730.305000", "160730.308000", "160730.311000"],
      "InstanceCreationTime": ["160425.697000", "160425.700000", "160425.703000", "160425.706000", "160425.709000", "160425.712000", "160425.716000", "160425.719000", "160425.722000", "160425.725000", "160425.728000", "160425.731000", "160425.734000", "160425.737000", "160425.740000", "160425.743000", "160425.746000", "160425.749000", "160425.752000", "160425.755000", "160425.758000", "160425.765000", "160425.768000", "160425.771000", "160425.774000", "160525.639000", "160525.642000", "160525.645000", "160525.649000", "160525.652000", "160525.655000", "160525.658000", "160525.661000", "160525.664000", "160525.667000", "160525.670000", "160525.673000", "160525.676000", "160525.679000", "160525.682000", "160525.685000", "160525.688000", "160525.691000", "160525.694000", "160525.697000", "160525.700000", "160525.703000", "160525.706000", "160525.709000", "160525.712000", "160525.715000", "160525.718000", "160605.639000", "160605.642000", "160605.646000", "160605.649000", "160605.666000", "160605.669000", "160605.672000", "160605.675000", "160605.679000", "160605.681000", "160605.685000", "160605.688000", "160605.691000", "160605.694000", "160605.697000", "160605.700000", "160605.703000", "160605.706000", "160705.639000", "160705.642000", "160705.645000", "160705.649000", "160705.652000", "160705.655000", "160705.664000", "160705.667000", "160705.677000", "160705.680000", "160705.683000", "160705.686000", "160705.689000", "160705.692000", "160705.696000", "160705.699000", "160705.702000", "160705.705000", "160705.708000", "160705.711000", "160705.714000", "160705.717000", "160705.720000", "160705.724000", "160705.727000", "160705.730000", "160730.273000", "160730.276000", "160730.279000", "160730.282000", "160730.293000", "160730.296000", "160730.299000", "160730.302000", "160730.305000", "160730.308000", "160730.311000"],
      "InstanceNumber": [1, 2, 3, 4, 5, 6, 7, 8, 9, 10, 11, 12, 13, 14, 15, 16, 17, 18, 19, 20, 21, 22, 23, 24, 25, 26, 27, 28, 29, 30, 31, 32, 33, 34, 35, 36, 37, 38, 39, 40, 41, 42, 43, 44, 45, 46, 47, 48, 49, 50, 51, 52, 53, 54, 55, 56, 57, 58, 59, 60, 61, 62, 63, 64, 65, 66, 67, 68, 69, 70, 71, 72, 73, 74, 75, 76, 77, 78, 79, 80, 81, 82, 83, 84, 85, 86, 87, 88, 89, 90, 91, 92, 93, 94, 95, 96, 97, 98, 99, 100, 101, 102, 103, 104, 105, 106, 107],
      "LargestImagePixelValue": [65535, 60606, 17774, 9385, 16787, 16185, 29495, 11167, 8010, 8604, 17397, 29826, 8476, 8189, 8894, 9730, 16537, 8872, 10682, 9261, 9034, 65535, 16562, 10255, 17683, 15601, 8295, 8427, 9067, 9425, 27502, 7993, 17794, 9284, 9572, 27231, 9624, 10506, 16791, 8953, 8153, 65535, 10600, 8226, 8977, 29592, 18965, 7917, 8607, 16796, 9017, 14790, 17644, 9359, 29854, 17656, 9115, 19363, 9486, 9162, 16602, 61751, 17648, 9070, 10534, 9186, 9990, 29160, 15445, 17168, 9146, 11725, 10809, 10007, 16559, 10053, 11201, 8263, 15641, 15720, 9378, 65535, 16633, 9767, 9126, 16466, 15912, 8831, 17526, 11084, 11598, 9103, 19157, 9719, 8844, 9238, 27925, 17924, 8174, 16381, 16596, 62045, 8159, 9259, 15789, 8771, 10346],
      "SequenceName": [
 "ep_b5#1",
 "ep_b5#1",
 "ep_b1000#2",
 "ep_b2005#3",
 "ep_b1000#4",
 "ep_b995#5",
 "ep_b300#6",
 "ep_b1995#7",
 "ep_b2000#8",
 "ep_b2000#9",
 "ep_b995#10",
 "ep_b300#11",
 "ep_b1990#12",
 "ep_b2005#13",
 "ep_b2005#14",
 "ep_b2000#15",
 "ep_b1000#16",
 "ep_b2000#17",
 "ep_b2005#18",
 "ep_b1995#19",
 "ep_b1990#20",
 "ep_b5#21",
 "ep_b995#22",
 "ep_b1990#23",
 "ep_b995#24",
 "ep_b1000#25",
 "ep_b2000#26",
 "ep_b1995#27",
 "ep_b1990#28",
 "ep_b1995#29",
 "ep_b300#30",
 "ep_b2005#31",
 "ep_b1005#32",
 "ep_b2000#33",
 "ep_b2000#34",
 "ep_b300#35",
 "ep_b2005#36",
 "ep_b1995#37",
 "ep_b1005#38",
 "ep_b2000#39",
 "ep_b2005#40",
 "ep_b5#41",
 "ep_b1995#42",
 "ep_b2005#43",
 "ep_b1995#44",
 "ep_b305#45",
 "ep_b1005#46",
 "ep_b2005#47",
 "ep_b2000#48",
 "ep_b1005#49",
 "ep_b2000#50",
 "ep_b995#51",
 "ep_b1000#52",
 "ep_b1995#53",
 "ep_b300#54",
 "ep_b1000#55",
 "ep_b2000#56",
 "ep_b1005#57",
 "ep_b2010#58",
 "ep_b2000#59",
 "ep_b1000#60",
 "ep_b5#61",
 "ep_b1000#62",
 "ep_b1995#63",
 "ep_b2000#64",
 "ep_b2005#65",
 "ep_b2010#66",
 "ep_b300#67",
 "ep_b1005#68",
 "ep_b1000#69",
 "ep_b2000#70",
 "ep_b1995#71",
 "ep_b2005#72",
 "ep_b2005#73",
 "ep_b1005#74",
 "ep_b2000#75",
 "ep_b2005#76",
 "ep_b2000#77",
 "ep_b1005#78",
 "ep_b1000#79",
 "ep_b1995#80",
 "ep_b5#81",
 "ep_b995#82",
 "ep_b2010#83",
 "ep_b2000#84",
 "ep_b995#85",
 "ep_b1000#86",
 "ep_b1995#87",
 "ep_b1005#88",
 "ep_b2005#89",
 "ep_b2005#90",
 "ep_b1995#91",
 "ep_b1005#92",
 "ep_b2005#93",
 "ep_b2000#94",
 "ep_b1995#95",
 "ep_b300#96",
 "ep_b995#97",
 "ep_b2000#98",
 "ep_b1000#99",
 "ep_b995#100",
 "ep_b5#101",
 "ep_b2005#102",
 "ep_b2005#103",
 "ep_b1000#104",
 "ep_b2005#105",
 "ep_b1995#106"
],
      "TriggerTime": [12837.5, 15080.0, 17322.5, 19567.5, 21810.0, 24052.5, 26295.0, 28537.5, 30782.5, 33025.0, 35267.5, 37510.0, 39752.5, 41997.5, 44240.0, 46482.5, 48725.0, 50967.5, 53212.5, 55455.0, 57697.5, 59940.0, 62182.5, 64427.5, 66670.0, 68912.5, 71155.0, 73397.5, 75642.5, 77885.0, 80127.5, 82370.0, 84612.5, 86857.5, 89100.0, 91342.5, 93585.0, 95827.5, 98072.5, 100315.0, 102557.5, 104800.0, 107042.5, 109287.5, 111530.0, 113772.5, 116015.0, 118257.5, 120502.5, 122745.0, 124987.5, 127230.0, 129472.5, 131717.5, 133960.0, 136202.5, 138445.0, 140687.5, 142932.5, 145175.0, 147417.5, 149660.0, 151902.5, 154147.5, 156390.0, 158632.5, 160875.0, 163117.5, 165362.5, 167605.0, 169847.5, 172090.0, 174332.5, 176577.5, 178820.0, 181062.5, 183305.0, 185547.5, 187792.5, 190035.0, 192277.5, 194520.0, 196762.5, 199007.5, 201250.0, 203492.5, 205735.0, 207977.5, 210222.5, 212465.0, 214707.5, 216950.0, 219192.5, 221437.5, 223680.0, 225922.5, 228165.0, 230407.5, 232652.5, 234895.0, 237137.5, 239380.0, 241622.5, 243867.5, 246110.0, 248352.5, 250595.0],
      "WindowCenter": [7101.0, 7093.0, 3413.0, 2206.0, 3396.0, 3361.0, 5149.0, 2213.0, 2162.0, 2187.0, 3388.0, 5120.0, 2130.0, 2116.0, 2203.0, 2216.0, 3374.0, 2175.0, 2231.0, 2173.0, 2158.0, 7004.0, 3389.0, 2217.0, 3418.0, 3372.0, 2172.0, 2156.0, 2130.0, 2153.0, 5111.0, 2129.0, 3369.0, 2202.0, 2183.0, 5132.0, 2186.0, 2184.0, 3326.0, 2210.0, 2130.0, 7065.0, 2242.0, 2158.0, 2175.0, 5093.0, 3383.0, 2115.0, 2184.0, 3326.0, 2190.0, 3335.0, 3370.0, 2206.0, 5118.0, 3356.0, 2158.0, 3389.0, 2157.0, 2217.0, 3364.0, 7043.0, 3412.0, 2144.0, 2236.0, 2173.0, 2172.0, 5185.0, 3329.0, 3376.0, 2181.0, 2255.0, 2246.0, 2206.0, 3324.0, 2215.0, 2247.0, 2159.0, 3312.0, 3360.0, 2186.0, 7028.0, 3342.0, 2186.0, 2172.0, 3383.0, 3372.0, 2127.0, 3329.0, 2208.0, 2234.0, 2132.0, 3379.0, 2169.0, 2203.0, 2216.0, 5140.0, 3414.0, 2158.0, 3384.0, 3352.0, 6982.0, 2125.0, 2142.0, 3377.0, 2127.0, 2241.0],
      "WindowWidth": [15276.0, 15280.0, 7871.0, 5410.0, 7824.0, 7763.0, 11291.0, 5414.0, 5321.0, 5372.0, 7828.0, 11230.0, 5254.0, 5221.0, 5414.0, 5431.0, 7784.0, 5346.0, 5471.0, 5338.0, 5311.0, 15066.0, 7817.0, 5438.0, 7882.0, 7784.0, 5332.0, 5305.0, 5255.0, 5288.0, 11224.0, 5246.0, 7795.0, 5397.0, 5356.0, 11264.0, 5376.0, 5357.0, 7691.0, 5434.0, 5250.0, 15217.0, 5489.0, 5303.0, 5352.0, 11185.0, 7823.0, 5223.0, 5361.0, 7712.0, 5373.0, 7730.0, 7788.0, 5418.0, 11234.0, 7750.0, 5302.0, 7837.0, 5307.0, 5427.0, 7758.0, 15142.0, 7864.0, 5279.0, 5478.0, 5338.0, 5342.0, 11374.0, 7696.0, 7784.0, 5347.0, 5510.0, 5504.0, 5425.0, 7703.0, 5427.0, 5506.0, 5312.0, 7670.0, 7755.0, 5366.0, 15106.0, 7726.0, 5374.0, 5332.0, 7806.0, 7790.0, 5244.0, 7698.0, 5423.0, 5485.0, 5259.0, 7826.0, 5330.0, 5403.0, 5429.0, 11275.0, 7874.0, 5306.0, 7809.0, 7742.0, 15035.0, 5237.0, 5276.0, 7806.0, 5240.0, 5500.0]
    },
    "slices": {}
  }
}