{
  "AcquisitionMatrixPE": 110,
  "AcquisitionNumber": 1,
  "AcquisitionTime": "15:59:7.817500",
  "BandwidthPerPixelPhaseEncode": 12.987,
  "BaseResolution": 110,
  "BodyPartExamined": "BRAIN",
  "CoilCombinationMethod": "Sum of Squares",
  "ConsistencyInfo": "N4_VE11C_LATEST_20160120",
  "ConversionSoftware": "dcm2niix",
  "ConversionSoftwareVersion": "v1.0.20211006",
  "DerivedVendorReportedEchoSpacing": 0.000700001,
  "DeviceSerialNumber": "167006",
  "DiffusionScheme": "Monopolar",
  "DwellTime": 2.7e-06,
  "EchoTime": 0.0768,
  "EchoTrainLength": 83,
  "EffectiveEchoSpacing": 0.000700001,
  "FlipAngle": 78,
  "HeudiconvVersion": "0.5.3.post569+g418601f",
  "ImageComments": "Unaliased MB3/PE3/LB SENSE1+",
  "ImageOrientationPatientDICOM": [0.999848, -0.0163999, 0.00596906, 0.0174524, 0.93955, -0.341968],
  "ImageOrientationText": "Tra>Cor(-20.0)",
  "ImageType": [
    "ORIGINAL",
    "PRIMARY",
    "DIFFUSION",
    "NONE",
    "MB",
    "ND",
    "MOSAIC"
],
  "ImagingFrequency": 123.259,
  "InPlanePhaseEncodingDirectionDICOM": "COL",
  "InstitutionAddress": "Chemin Queen-Mary 4565,Montreal,District,CA,H3W 1W5",
  "InstitutionName": "IUGM",
  "InstitutionalDepartmentName": "Department",
  "MRAcquisitionType": "2D",
  "MagneticFieldStrength": 3,
  "Manufacturer": "Siemens",
  "ManufacturersModelName": "Prisma_fit",
  "MatrixCoilMode": "SENSE",
  "Modality": "MR",
  "MultibandAccelerationFactor": 3,
  "PartialFourier": 0.75,
  "PatientPosition": "HFS",
  "PercentPhaseFOV": 100,
  "PercentSampling": 100,
  "PhaseEncodingDirection": "j-",
  "PhaseEncodingSteps": 83,
  "PhaseResolution": 1,
  "PixelBandwidth": 1685,
  "ProcedureStepDescription": "anat^generic",
  "ProtocolName": "dMRI_dir106_AP_test_cmrr",
  "PulseSequenceDetails": "%CustomerSeq%\\cmrr_mbep2d_diff",
  "ReceiveCoilActiveElements": "HC1-7",
  "ReceiveCoilName": "HeadNeck_64",
  "ReconMatrixPE": 110,
  "RepetitionTime": 2.243,
  "SAR": 0.118011,
  "ScanOptions": "PFP\\EXT",
  "ScanningSequence": "EP",
  "SequenceName": "ep_b5#1",
  "SequenceVariant": "SK\\SS",
  "SeriesDescription": "dMRI_dir106_AP_test_cmrr",
  "SeriesNumber": 9,
  "ShimSetting": [619, -7286, -8823, 594, 17, -319, -14, -1],
  "SliceThickness": 2,
  "SliceTiming": [0, 1.17, 0.1175, 1.2875, 0.2325, 1.4025, 0.35, 1.52, 0.4675, 1.6375, 0.585, 1.755, 0.7025, 1.8725, 0.8175, 1.9875, 0.935, 2.105, 1.0525, 0, 1.17, 0.1175, 1.2875, 0.2325, 1.4025, 0.35, 1.52, 0.4675, 1.6375, 0.585, 1.755, 0.7025, 1.8725, 0.8175, 1.9875, 0.935, 2.105, 1.0525, 0, 1.17, 0.1175, 1.2875, 0.2325, 1.4025, 0.35, 1.52, 0.4675, 1.6375, 0.585, 1.755, 0.7025, 1.8725, 0.8175, 1.9875, 0.935, 2.105, 1.0525],
  "SoftwareVersions": "syngo MR E11",
  "SpacingBetweenSlices": 2,
  "StationName": "MRC35049",
  "TotalReadoutTime": 0.0763001,
  "TxRefAmp": 217.037,
  "WipMemBlock": "690dd881-3d43-4453-afa2-e7fcb17ac8a1||Sequence: R016 ve11c/master r/e634e98; Dec 19 2017 11:11:25 by eja",
  "dcmmeta_affine": [
    [-1.9996954202651978, 0.034904781728982925, -1.2888625278151267e-08, 107.30499267578125],
    [0.032799772918224335, 1.8790990114212036, -0.6840403079986572, -74.62739562988281],
    [0.011938126757740974, 0.6839361190795898, 1.879385232925415, -66.15130615234375],
    [0.0, 0.0, 0.0, 1.0]
],
  "dcmmeta_reorient_transform": [
    [0.0, -1.0, 0.0, 109.0],
    [1.0, 0.0, 0.0, 0.0],
    [0.0, 0.0, 1.0, 0.0],
    [0.0, 0.0, 0.0, 1.0]
],
  "dcmmeta_shape": [110, 110, 57, 107],
  "dcmmeta_slice_dim": 2,
  "dcmmeta_version": 0.6,
  "global": {
    "const": {
      "AcquisitionMatrix": [110, 0, 0, 110],
      "AngioFlag": "N",
      "BitsAllocated": 16,
      "BitsStored": 16,
      "BodyPartExamined": "BRAIN",
      "CardiacNumberOfImages": 1,
      "Columns": 880,
      "EchoNumbers": 1,
      "EchoTime": 76.8,
      "EchoTrainLength": 83,
      "FlipAngle": 78.0,
      "HighBit": 15,
      "ImageOrientationPatient": [0.99984769541472, -0.016399885862, 0.00596906337616, 0.01745239163769, 0.93954950247002, -0.3419680488503],
      "ImagePositionPatient": [-894.4306776894, -841.01959848237, 267.11694863264],
      "ImageType": [
        "ORIGINAL",
        "PRIMARY",
        "DIFFUSION",
        "NONE",
        "MB",
        "ND",
        "MOSAIC"
],
      "ImagedNucleus": "1H",
      "ImagingFrequency": 123.258683,
      "InPlanePhaseEncodingDirection": "COL",
      "LargestImagePixelValue": 4095,
      "MRAcquisitionType": "2D",
      "MagneticFieldStrength": 3.0,
      "Manufacturer": "SIEMENS",
      "ManufacturerModelName": "Prisma_fit",
      "Modality": "MR",
      "NominalInterval": 0,
      "NumberOfAverages": 1.0,
      "NumberOfPhaseEncodingSteps": 83,
      "PercentPhaseFieldOfView": 100.0,
      "PercentSampling": 100.0,
      "PerformedProcedureStepStartTime": "153517.378000",
      "PhotometricInterpretation": "MONOCHROME2",
      "PixelBandwidth": 1685.0,
      "PixelRepresentation": 0,
      "PixelSpacing": [2.0, 2.0],
      "ProtocolName": "dMRI_dir106_AP_test_cmrr",
      "RepetitionTime": 2243.0,
      "RescaleIntercept": -4096.0,
      "RescaleSlope": 2.0,
      "RescaleType": "US",
      "Rows": 880,
      "SAR": 0.11801067182805,
      "SamplesPerPixel": 1,
      "ScanOptions": [
        "PFP",
        "EXT"
],
      "ScanningSequence": "EP",
      "SequenceVariant": [
        "SK",
        "SS"
],
      "SeriesDescription": "dMRI_dir106_AP_test_cmrr",
      "SeriesNumber": 9,
      "SeriesTime": "160010.750000",
      "SliceLocation": -36.637820720807,
      "SliceThickness": 2.0,
      "SmallestImagePixelValue": 0,
      "SoftwareVersions": "syngo MR E11",
      "SpacingBetweenSlices": 2.0000000515386,
      "SpecificCharacterSet": "ISO_IR 100",
      "StudyID": "1",
      "StudyTime": "153517.289000",
      "TransmitCoilName": "Body",
      "VariableFlipAngleFlag": "N",
      "dBdt": 0.0},
    "slices": {}
  },
  "time": {
    "samples": {
      "AcquisitionNumber": [1, 2, 3, 4, 5, 6, 7, 8, 9, 10, 11, 12, 13, 14, 15, 16, 17, 18, 19, 20, 21, 22, 23, 24, 25, 26, 27, 28, 29, 30, 31, 32, 33, 34, 35, 36, 37, 38, 39, 40, 41, 42, 43, 44, 45, 46, 47, 48, 49, 50, 51, 52, 53, 54, 55, 56, 57, 58, 59, 60, 61, 62, 63, 64, 65, 66, 67, 68, 69, 70, 71, 72, 73, 74, 75, 76, 77, 78, 79, 80, 81, 82, 83, 84, 85, 86, 87, 88, 89, 90, 91, 92, 93, 94, 95, 96, 97, 98, 99, 100, 101, 102, 103, 104, 105, 106, 107],
      "AcquisitionTime": ["155907.817500", "155910.060000", "155912.302500", "155914.547500", "155916.790000", "155919.032500", "155921.275000", "155923.517500", "155925.762500", "155928.005000", "155930.247500", "155932.490000", "155934.732500", "155936.977500", "155939.220000", "155941.462500", "155943.705000", "155945.947500", "155948.192500", "155950.435000", "155952.677500", "155954.920000", "155957.162500", "155959.407500", "160001.650000", "160003.892500", "160006.135000", "160008.377500", "160010.622500", "160012.865000", "160015.107500", "160017.350000", "160019.592500", "160021.837500", "160024.080000", "160026.322500", "160028.565000", "160030.807500", "160033.052500", "160035.295000", "160037.537500", "160039.780000", "160042.022500", "160044.267500", "160046.510000", "160048.752500", "160050.995000", "160053.237500", "160055.482500", "160057.725000", "160059.967500", "160102.210000", "160104.452500", "160106.697500", "160108.940000", "160111.182500", "160113.425000", "160115.667500", "160117.912500", "160120.155000", "160122.397500", "160124.640000", "160126.882500", "160129.127500", "160131.370000", "160133.612500", "160135.855000", "160138.097500", "160140.342500", "160142.585000", "160144.827500", "160147.070000", "160149.312500", "160151.557500", "160153.800000", "160156.042500", "160158.285000", "160200.527500", "160202.772500", "160205.015000", "160207.257500", "160209.500000", "160211.742500", "160213.987500", "160216.230000", "160218.472500", "160220.715000", "160222.957500", "160225.202500", "160227.445000", "160229.687500", "160231.930000", "160234.172500", "160236.417500", "160238.660000", "160240.902500", "160243.145000", "160245.387500", "160247.632500", "160249.875000", "160252.117500", "160254.360000", "160256.602500", "160258.847500", "160301.090000", "160303.332500", "160305.575000"],
      "ContentTime": ["160010.752000", "160010.756000", "160010.759000", "160010.762000", "160010.765000", "160010.768000", "160010.771000", "160010.774000", "160010.777000", "160010.781000", "160010.784000", "160010.802000", "160010.805000", "160010.808000", "160010.812000", "160010.815000", "160010.818000", "160010.821000", "160010.824000", "160010.827000", "160010.830000", "160010.833000", "160010.836000", "160010.840000", "160010.843000", "160010.846000", "160010.849000", "160110.686000", "160110.689000", "160110.692000", "160110.695000", "160110.698000", "160110.701000", "160110.705000", "160110.708000", "160110.711000", "160110.714000", "160110.717000", "160110.720000", "160110.723000", "160110.726000", "160110.729000", "160110.733000", "160110.736000", "160110.739000", "160110.742000", "160110.745000", "160110.748000", "160110.751000", "160110.754000", "160110.757000", "160110.760000", "160110.764000", "160110.767000", "160210.689000", "160210.693000", "160210.696000", "160210.699000", "160210.702000", "160210.705000", "160210.708000", "160210.711000", "160210.715000", "160210.718000", "160210.721000", "160210.724000", "160210.727000", "160210.730000", "160210.733000", "160210.736000", "160210.740000", "160210.743000", "160210.746000", "160210.819000", "160210.822000", "160210.825000", "160210.829000", "160210.832000", "160210.835000", "160210.838000", "160210.841000", "160310.722000", "160310.725000", "160310.729000", "160310.732000", "160310.735000", "160310.738000", "160310.742000", "160310.745000", "160310.748000", "160310.752000", "160310.757000", "160310.761000", "160310.764000", "160310.767000", "160310.770000", "160310.773000", "160310.777000", "160310.780000", "160310.783000", "160310.786000", "160310.789000", "160310.792000", "160310.795000", "160310.799000", "160310.802000", "160310.805000"],
      "InstanceCreationTime": ["160010.752000", "160010.756000", "160010.759000", "160010.762000", "160010.765000", "160010.768000", "160010.771000", "160010.774000", "160010.777000", "160010.781000", "160010.784000", "160010.802000", "160010.805000", "160010.808000", "160010.812000", "160010.815000", "160010.818000", "160010.821000", "160010.824000", "160010.827000", "160010.830000", "160010.833000", "160010.836000", "160010.840000", "160010.843000", "160010.846000", "160010.849000", "160110.686000", "160110.689000", "160110.692000", "160110.695000", "160110.698000", "160110.701000", "160110.705000", "160110.708000", "160110.711000", "160110.714000", "160110.717000", "160110.720000", "160110.723000", "160110.726000", "160110.729000", "160110.733000", "160110.736000", "160110.739000", "160110.742000", "160110.745000", "160110.748000", "160110.751000", "160110.754000", "160110.757000", "160110.760000", "160110.764000", "160110.767000", "160210.689000", "160210.693000", "160210.696000", "160210.699000", "160210.702000", "160210.705000", "160210.708000", "160210.711000", "160210.715000", "160210.718000", "160210.721000", "160210.724000", "160210.727000", "160210.730000", "160210.733000", "160210.736000", "160210.740000", "160210.743000", "160210.746000", "160210.819000", "160210.822000", "160210.825000", "160210.829000", "160210.832000", "160210.835000", "160210.838000", "160210.841000", "160310.722000", "160310.725000", "160310.729000", "160310.732000", "160310.735000", "160310.738000", "160310.742000", "160310.745000", "160310.748000", "160310.752000", "160310.757000", "160310.761000", "160310.764000", "160310.767000", "160310.770000", "160310.773000", "160310.777000", "160310.780000", "160310.783000", "160310.786000", "160310.789000", "160310.792000", "160310.795000", "160310.799000", "160310.802000", "160310.805000"],
      "InstanceNumber": [1, 2, 3, 4, 5, 6, 7, 8, 9, 10, 11, 12, 13, 14, 15, 16, 17, 18, 19, 20, 21, 22, 23, 24, 25, 26, 27, 28, 29, 30, 31, 32, 33, 34, 35, 36, 37, 38, 39, 40, 41, 42, 43, 44, 45, 46, 47, 48, 49, 50, 51, 52, 53, 54, 55, 56, 57, 58, 59, 60, 61, 62, 63, 64, 65, 66, 67, 68, 69, 70, 71, 72, 73, 74, 75, 76, 77, 78, 79, 80, 81, 82, 83, 84, 85, 86, 87, 88, 89, 90, 91, 92, 93, 94, 95, 96, 97, 98, 99, 100, 101, 102, 103, 104, 105, 106, 107],
      "SequenceName": [
 "ep_b5#1",
 "ep_b5#1",
 "ep_b1000#2",
 "ep_b2005#3",
 "ep_b1000#4",
 "ep_b995#5",
 "ep_b300#6",
 "ep_b1995#7",
 "ep_b2000#8",
 "ep_b2000#9",
 "ep_b995#10",
 "ep_b300#11",
 "ep_b1990#12",
 "ep_b2005#13",
 "ep_b2005#14",
 "ep_b2000#15",
 "ep_b1000#16",
 "ep_b2000#17",
 "ep_b2005#18",
 "ep_b1995#19",
 "ep_b1990#20",
 "ep_b5#21",
 "ep_b995#22",
 "ep_b1990#23",
 "ep_b995#24",
 "ep_b1000#25",
 "ep_b2000#26",
 "ep_b1995#27",
 "ep_b1990#28",
 "ep_b1995#29",
 "ep_b300#30",
 "ep_b2005#31",
 "ep_b1005#32",
 "ep_b2000#33",
 "ep_b2000#34",
 "ep_b300#35",
 "ep_b2005#36",
 "ep_b1995#37",
 "ep_b1005#38",
 "ep_b2000#39",
 "ep_b2005#40",
 "ep_b5#41",
 "ep_b1995#42",
 "ep_b2005#43",
 "ep_b1995#44",
 "ep_b305#45",
 "ep_b1005#46",
 "ep_b2005#47",
 "ep_b2000#48",
 "ep_b1005#49",
 "ep_b2000#50",
 "ep_b995#51",
 "ep_b1000#52",
 "ep_b1995#53",
 "ep_b300#54",
 "ep_b1000#55",
 "ep_b2000#56",
 "ep_b1005#57",
 "ep_b2010#58",
 "ep_b2000#59",
 "ep_b1000#60",
 "ep_b5#61",
 "ep_b1000#62",
 "ep_b1995#63",
 "ep_b2000#64",
 "ep_b2005#65",
 "ep_b2010#66",
 "ep_b300#67",
 "ep_b1005#68",
 "ep_b1000#69",
 "ep_b2000#70",
 "ep_b1995#71",
 "ep_b2005#72",
 "ep_b2005#73",
 "ep_b1005#74",
 "ep_b2000#75",
 "ep_b2005#76",
 "ep_b2000#77",
 "ep_b1005#78",
 "ep_b1000#79",
 "ep_b1995#80",
 "ep_b5#81",
 "ep_b995#82",
 "ep_b2010#83",
 "ep_b2000#84",
 "ep_b995#85",
 "ep_b1000#86",
 "ep_b1995#87",
 "ep_b1005#88",
 "ep_b2005#89",
 "ep_b2005#90",
 "ep_b1995#91",
 "ep_b1005#92",
 "ep_b2005#93",
 "ep_b2000#94",
 "ep_b1995#95",
 "ep_b300#96",
 "ep_b995#97",
 "ep_b2000#98",
 "ep_b1000#99",
 "ep_b995#100",
 "ep_b5#101",
 "ep_b2005#102",
 "ep_b2005#103",
 "ep_b1000#104",
 "ep_b2005#105",
 "ep_b1995#106"
],
      "TriggerTime": [12837.5, 15080.0, 17322.5, 19565.0, 21810.0, 24052.5, 26295.0, 28537.5, 30780.0, 33025.0, 35267.5, 37510.0, 39752.5, 41995.0, 44240.0, 46482.5, 48725.0, 50967.5, 53210.0, 55455.0, 57697.5, 59940.0, 62182.5, 64425.0, 66670.0, 68912.5, 71155.0, 73397.5, 75640.0, 77885.0, 80127.5, 82370.0, 84612.5, 86855.0, 89100.0, 91342.5, 93585.0, 95827.5, 98070.0, 100315.0, 102557.5, 104800.0, 107042.5, 109285.0, 111530.0, 113772.5, 116015.0, 118257.5, 120500.0, 122745.0, 124987.5, 127230.0, 129472.5, 131715.0, 133960.0, 136202.5, 138445.0, 140687.5, 142930.0, 145175.0, 147417.5, 149660.0, 151902.5, 154145.0, 156390.0, 158632.5, 160875.0, 163117.5, 165360.0, 167605.0, 169847.5, 172090.0, 174332.5, 176575.0, 178820.0, 181062.5, 183305.0, 185547.5, 187790.0, 190035.0, 192277.5, 194520.0, 196762.5, 199005.0, 201250.0, 203492.5, 205735.0, 207977.5, 210220.0, 212465.0, 214707.5, 216950.0, 219192.5, 221435.0, 223680.0, 225922.5, 228165.0, 230407.5, 232650.0, 234895.0, 237137.5, 239380.0, 241622.5, 243865.0, 246110.0, 248352.5, 250595.0],
      "WindowCenter": [4668.0, 4666.0, 4556.0, 4610.0, 4698.0, 4824.0, 4650.0, 4554.0, 4718.0, 4572.0, 1152.0, 4692.0, 4876.0, 5018.0, 4826.0, 4644.0, 4830.0, 4684.0, 4392.0, 4844.0, 4528.0, 4668.0, 4938.0, 4352.0, 4764.0, 4764.0, 4726.0, 4704.0, 4978.0, 4528.0, 4784.0, 4710.0, 4804.0, 4710.0, 4790.0, 4650.0, 4922.0, 4560.0, 4940.0, 4534.0, 4966.0, 4636.0, 4518.0, 4644.0, 4936.0, 4674.0, 4568.0, 4868.0, 4640.0, 4822.0, 4802.0, 4910.0, 4614.0, 4692.0, 4656.0, 4778.0, 4748.0, 4536.0, 5088.0, 4566.0, 4858.0, 4764.0, 4666.0, 4918.0, 4340.0, 4874.0, 4750.0, 4678.0, 4632.0, 4906.0, 4802.0, 4386.0, 4556.0, 4492.0, 4896.0, 4556.0, 4502.0, 4706.0, 4614.0, 4740.0, 4578.0, 4660.0, 5004.0, 4832.0, 4880.0, 4604.0, 4720.0, 5034.0, 4952.0, 4452.0, 4464.0, 4922.0, 4658.0, 4910.0, 4620.0, 4850.0, 4618.0, 4450.0, 4670.0, 4852.0, 4656.0, 4722.0, 4868.0, 4986.0, 4678.0, 4640.0, 4498.0],
      "WindowCenterWidthExplanation": [
        "Algo1",
        "Algo1",
        "Algo1",
        "Algo1",
        "Algo1",
        "Algo1",
        "Algo1",
        "Algo1",
        "Algo1",
        "Algo1",
        "WINDOW1",
        "Algo1",
        "Algo1",
        "Algo1",
        "Algo1",
        "Algo1",
        "Algo1",
        "Algo1",
        "Algo1",
        "Algo1",
        "Algo1",
        "Algo1",
        "Algo1",
        "Algo1",
        "Algo1",
        "Algo1",
        "Algo1",
        "Algo1",
        "Algo1",
        "Algo1",
        "Algo1",
        "Algo1",
        "Algo1",
        "Algo1",
        "Algo1",
        "Algo1",
        "Algo1",
        "Algo1",
        "Algo1",
        "Algo1",
        "Algo1",
        "Algo1",
        "Algo1",
        "Algo1",
        "Algo1",
        "Algo1",
        "Algo1",
        "Algo1",
        "Algo1",
        "Algo1",
        "Algo1",
        "Algo1",
        "Algo1",
        "Algo1",
        "Algo1",
        "Algo1",
        "Algo1",
        "Algo1",
        "Algo1",
        "Algo1",
        "Algo1",
        "Algo1",
        "Algo1",
        "Algo1",
        "Algo1",
        "Algo1",
        "Algo1",
        "Algo1",
        "Algo1",
        "Algo1",
        "Algo1",
        "Algo1",
        "Algo1",
        "Algo1",
        "Algo1",
        "Algo1",
        "Algo1",
        "Algo1",
        "Algo1",
        "Algo1",
        "Algo1",
        "Algo1",
        "Algo1",
        "Algo1",
        "Algo1",
        "Algo1",
        "Algo1",
        "Algo1",
        "Algo1",
        "Algo1",
        "Algo1",
        "Algo1",
        "Algo1",
        "Algo1",
        "Algo1",
        "Algo1",
        "Algo1",
        "Algo1",
        "Algo1",
        "Algo1",
        "Algo1",
        "Algo1",
        "Algo1",
        "Algo1",
        "Algo1",
        "Algo1",
        "Algo1"
],
      "WindowWidth": [18264.0, 18262.0, 18260.0, 18550.0, 18542.0, 18490.0, 18330.0, 18406.0, 18664.0, 18374.0, 9444.0, 18422.0, 18694.0, 18964.0, 18752.0, 18562.0, 18730.0, 18604.0, 18184.0, 18836.0, 18376.0, 18268.0, 18842.0, 18142.0, 18560.0, 18570.0, 18694.0, 18464.0, 18986.0, 18362.0, 18434.0, 18658.0, 18608.0, 18660.0, 18706.0, 18344.0, 18856.0, 18476.0, 18778.0, 18320.0, 18816.0, 18240.0, 18412.0, 18498.0, 18892.0, 18364.0, 18322.0, 18732.0, 18386.0, 18646.0, 18792.0, 18728.0, 18346.0, 18614.0, 18388.0, 18602.0, 18704.0, 18326.0, 19040.0, 18370.0, 18596.0, 18366.0, 18460.0, 18902.0, 18142.0, 18866.0, 18658.0, 18350.0, 18410.0, 18818.0, 18632.0, 18200.0, 18398.0, 18346.0, 18640.0, 18402.0, 18420.0, 18664.0, 18360.0, 18634.0, 18512.0, 18260.0, 18854.0, 18738.0, 18860.0, 18408.0, 18546.0, 18946.0, 18828.0, 18306.0, 18316.0, 18798.0, 18400.0, 18968.0, 18386.0, 18832.0, 18270.0, 18232.0, 18648.0, 18692.0, 18502.0, 18332.0, 18718.0, 19040.0, 18384.0, 18576.0, 18362.0]
    },
    "slices": {}
  }
}