{
  "AcquisitionMatrixPE": 110,
  "AcquisitionNumber": 1,
  "AcquisitionTime": "17:42:31.225000",
  "BandwidthPerPixelPhaseEncode": 12.987,
  "BaseResolution": 110,
  "BodyPartExamined": "BRAIN",
  "CoilCombinationMethod": "Sum of Squares",
  "ConsistencyInfo": "N4_VE11C_LATEST_20160120",
  "ConversionSoftware": "dcm2niix",
  "ConversionSoftwareVersion": "v1.0.20211006",
  "DerivedVendorReportedEchoSpacing": 0.000700001,
  "DeviceSerialNumber": "167006",
  "DiffusionScheme": "Monopolar",
  "DwellTime": 2.7e-06,
  "EchoTime": 0.0768,
  "EchoTrainLength": 83,
  "EffectiveEchoSpacing": 0.000700001,
  "FlipAngle": 78,
  "HeudiconvVersion": "0.5.3.post569+g418601f",
  "ImageComments": "Unaliased MB3/PE3/LB SENSE1",
  "ImageOrientationPatientDICOM": [1, 0, 0, 0, 0.948324, -0.317305],
  "ImageOrientationText": "Tra>Cor(-18.5)",
  "ImageType": [
    "ORIGINAL",
    "PRIMARY",
    "DIFFUSION",
    "NONE",
    "MB",
    "ND",
    "MOSAIC"
],
  "ImagingFrequency": 123.259,
  "InPlanePhaseEncodingDirectionDICOM": "COL",
  "InstitutionAddress": "Chemin Queen-Mary 4565,Montreal,District,CA,H3W 1W5",
  "InstitutionName": "IUGM",
  "InstitutionalDepartmentName": "Department",
  "MRAcquisitionType": "2D",
  "MagneticFieldStrength": 3,
  "Manufacturer": "Siemens",
  "ManufacturersModelName": "Prisma_fit",
  "MatrixCoilMode": "SENSE",
  "Modality": "MR",
  "MultibandAccelerationFactor": 3,
  "PartialFourier": 0.75,
  "PatientPosition": "HFS",
  "PercentPhaseFOV": 100,
  "PercentSampling": 100,
  "PhaseEncodingDirection": "j",
  "PhaseEncodingSteps": 83,
  "PhaseResolution": 1,
  "PixelBandwidth": 1685,
  "ProcedureStepDescription": "anat^generic",
  "ProtocolName": "dMRI_dir106_PA_test_cmrr",
  "PulseSequenceDetails": "%CustomerSeq%\\cmrr_mbep2d_diff",
  "ReceiveCoilActiveElements": "HC1-6",
  "ReceiveCoilName": "HeadNeck_64",
  "ReconMatrixPE": 110,
  "RepetitionTime": 2.243,
  "SAR": 0.13644,
  "ScanOptions": "PFP\\EXT",
  "ScanningSequence": "EP",
  "SequenceName": "ep_b5#1",
  "SequenceVariant": "SK\\SS",
  "SeriesDescription": "dMRI_dir106_PA_test_cmrr",
  "SeriesNumber": 11,
  "ShimSetting": [605, -7259, -8830, 439, -6, -334, 101, 34],
  "SliceThickness": 2,
  "SliceTiming": [0, 1.17, 0.1175, 1.2875, 0.235, 1.405, 0.3525, 1.5225, 0.4675, 1.6375, 0.585, 1.755, 0.7025, 1.8725, 0.82, 1.99, 0.9375, 2.1075, 1.0525, 0, 1.17, 0.1175, 1.2875, 0.235, 1.405, 0.3525, 1.5225, 0.4675, 1.6375, 0.585, 1.755, 0.7025, 1.8725, 0.82, 1.99, 0.9375, 2.1075, 1.0525, 0, 1.17, 0.1175, 1.2875, 0.235, 1.405, 0.3525, 1.5225, 0.4675, 1.6375, 0.585, 1.755, 0.7025, 1.8725, 0.82, 1.99, 0.9375, 2.1075, 1.0525],
  "SoftwareVersions": "syngo MR E11",
  "SpacingBetweenSlices": 2,
  "StationName": "MRC35049",
  "TotalReadoutTime": 0.0763001,
  "TxRefAmp": 232.552,
  "WipMemBlock": "d1fc2bed-1294-4c9f-94f3-b036d5dae95f||Sequence: R016 ve11c/master r/e634e98; Dec 19 2017 11:11:25 by eja",
  "dcmmeta_affine": [
    [-2.0, 0.0, 0.0, 109.49686431884766],
    [0.0, 1.896647334098816, -0.6346093416213989, -78.29389190673828],
    [0.0, 0.6346093416213989, 1.896647334098816, -52.9835319519043],
    [0.0, 0.0, 0.0, 1.0]
],
  "dcmmeta_reorient_transform": [
    [0.0, -1.0, 0.0, 109.0],
    [1.0, 0.0, 0.0, 0.0],
    [0.0, 0.0, 1.0, 0.0],
    [0.0, 0.0, 0.0, 1.0]
],
  "dcmmeta_shape": [110, 110, 57, 107],
  "dcmmeta_slice_dim": 2,
  "dcmmeta_version": 0.6,
  "global": {
    "const": {
      "AcquisitionMatrix": [110, 0, 0, 110],
      "AngioFlag": "N",
      "BitsAllocated": 16,
      "BitsStored": 16,
      "BodyPartExamined": "BRAIN",
      "CardiacNumberOfImages": 1,
      "Columns": 880,
      "EchoNumbers": 1,
      "EchoTime": 76.8,
      "EchoTrainLength": 83,
      "FlipAngle": 78.0,
      "HighBit": 15,
      "ImageOrientationPatient": [1.0, 0.0, 0.0, 0.0, 0.9483236491687, -0.3173046744493],
      "ImagePositionPatient": [-879.49686384201, -858.64987611831, 260.51348529577],
      "ImageType": [
        "ORIGINAL",
        "PRIMARY",
        "DIFFUSION",
        "NONE",
        "MB",
        "ND",
        "MOSAIC"
],
      "ImagedNucleus": "1H",
      "ImagingFrequency": 123.258839,
      "InPlanePhaseEncodingDirection": "COL",
      "MRAcquisitionType": "2D",
      "MagneticFieldStrength": 3.0,
      "Manufacturer": "SIEMENS",
      "ManufacturerModelName": "Prisma_fit",
      "Modality": "MR",
      "NominalInterval": 0,
      "NumberOfAverages": 1.0,
      "NumberOfPhaseEncodingSteps": 83,
      "PercentPhaseFieldOfView": 100.0,
      "PercentSampling": 100.0,
      "PerformedProcedureStepStartTime": "172212.203000",
      "PhotometricInterpretation": "MONOCHROME2",
      "PixelBandwidth": 1685.0,
      "PixelRepresentation": 0,
      "PixelSpacing": [2.0, 2.0],
      "ProtocolName": "dMRI_dir106_PA_test_cmrr",
      "RepetitionTime": 2243.0,
      "Rows": 880,
      "SAR": 0.13643982702358,
      "SamplesPerPixel": 1,
      "ScanOptions": [
        "PFP",
        "EXT"
],
      "ScanningSequence": "EP",
      "SequenceVariant": [
        "SK",
        "SS"
],
      "SeriesDescription": "dMRI_dir106_PA_test_cmrr",
      "SeriesNumber": 11,
      "SeriesTime": "174328.916000",
      "SliceLocation": -25.402520374301,
      "SliceThickness": 2.0,
      "SmallestImagePixelValue": 0,
      "SoftwareVersions": "syngo MR E11",
      "SpacingBetweenSlices": 1.9999999777511,
      "SpecificCharacterSet": "ISO_IR 100",
      "StudyID": "1",
      "StudyTime": "172212.047000",
      "TransmitCoilName": "Body",
      "VariableFlipAngleFlag": "N",
      "WindowCenterWidthExplanation": "Algo1",
      "dBdt": 0.0},
    "slices": {}
  },
  "time": {
    "samples": {
      "AcquisitionNumber": [1, 2, 3, 4, 5, 6, 7, 8, 9, 10, 11, 12, 13, 14, 15, 16, 17, 18, 19, 20, 21, 22, 23, 24, 25, 26, 27, 28, 29, 30, 31, 32, 33, 34, 35, 36, 37, 38, 39, 40, 41, 42, 43, 44, 45, 46, 47, 48, 49, 50, 51, 52, 53, 54, 55, 56, 57, 58, 59, 60, 61, 62, 63, 64, 65, 66, 67, 68, 69, 70, 71, 72, 73, 74, 75, 76, 77, 78, 79, 80, 81, 82, 83, 84, 85, 86, 87, 88, 89, 90, 91, 92, 93, 94, 95, 96, 97, 98, 99, 100, 101, 102, 103, 104, 105, 106, 107],
      "AcquisitionTime": ["174231.225000", "174233.467500", "174235.712500", "174237.955000", "174240.197500", "174242.440000", "174244.682500", "174246.927500", "174249.170000", "174251.412500", "174253.655000", "174255.897500", "174258.142500", "174300.385000", "174302.627500", "174304.870000", "174307.112500", "174309.357500", "174311.600000", "174313.842500", "174316.085000", "174318.327500", "174320.572500", "174322.815000", "174325.057500", "174327.300000", "174329.542500", "174331.787500", "174334.030000", "174336.272500", "174338.515000", "174340.757500", "174343.002500", "174345.245000", "174347.487500", "174349.730000", "174351.972500", "174354.217500", "174356.460000", "174358.702500", "174400.945000", "174403.187500", "174405.432500", "174407.675000", "174409.917500", "174412.160000", "174414.402500", "174416.647500", "174418.890000", "174421.132500", "174423.375000", "174425.617500", "174427.862500", "174430.105000", "174432.347500", "174434.590000", "174436.832500", "174439.077500", "174441.320000", "174443.562500", "174445.805000", "174448.047500", "174450.292500", "174452.535000", "174454.777500", "174457.020000", "174459.262500", "174501.507500", "174503.750000", "174505.992500", "174508.235000", "174510.477500", "174512.722500", "174514.965000", "174517.207500", "174519.450000", "174521.692500", "174523.937500", "174526.180000", "174528.422500", "174530.665000", "174532.907500", "174535.152500", "174537.395000", "174539.637500", "174541.880000", "174544.122500", "174546.367500", "174548.610000", "174550.852500", "174553.095000", "174555.337500", "174557.582500", "174559.825000", "174602.067500", "174604.310000", "174606.552500", "174608.797500", "174611.040000", "174613.282500", "174615.525000", "174617.767500", "174620.012500", "174622.255000", "174624.497500", "174626.740000", "174628.982500"],
      "ContentTime": ["174328.919000", "174328.922000", "174328.925000", "174328.929000", "174328.932000", "174328.935000", "174328.938000", "174328.941000", "174328.944000", "174328.947000", "174328.950000", "174328.953000", "174328.957000", "174328.960000", "174328.963000", "174328.966000", "174328.969000", "174328.972000", "174328.975000", "174328.978000", "174328.982000", "174328.985000", "174328.988000", "174328.991000", "174328.994000", "174428.889000", "174428.893000", "174428.896000", "174428.899000", "174428.902000", "174428.905000", "174428.908000", "174428.911000", "174428.914000", "174428.917000", "174428.921000", "174428.924000", "174428.927000", "174428.930000", "174428.933000", "174428.936000", "174428.939000", "174428.942000", "174428.945000", "174428.949000", "174428.952000", "174428.955000", "174428.958000", "174428.961000", "174428.964000", "174428.967000", "174428.971000", "174528.889000", "174528.893000", "174528.896000", "174528.899000", "174528.902000", "174528.905000", "174528.908000", "174528.911000", "174528.914000", "174528.917000", "174528.921000", "174528.924000", "174528.927000", "174528.930000", "174528.933000", "174528.936000", "174528.939000", "174528.943000", "174528.946000", "174528.949000", "174528.952000", "174528.955000", "174528.958000", "174528.961000", "174528.964000", "174528.967000", "174628.889000", "174628.893000", "174628.896000", "174628.899000", "174628.902000", "174628.905000", "174628.908000", "174628.911000", "174628.915000", "174628.918000", "174628.921000", "174628.924000", "174628.927000", "174628.930000", "174628.933000", "174628.936000", "174628.940000", "174628.943000", "174628.946000", "174628.949000", "174628.952000", "174628.955000", "174628.958000", "174628.961000", "174628.965000", "174628.968000", "174628.971000", "174634.195000", "174634.199000"],
      "InstanceCreationTime": ["174328.919000", "174328.922000", "174328.925000", "174328.929000", "174328.932000", "174328.935000", "174328.938000", "174328.941000", "174328.944000", "174328.947000", "174328.950000", "174328.953000", "174328.957000", "174328.960000", "174328.963000", "174328.966000", "174328.969000", "174328.972000", "174328.975000", "174328.978000", "174328.982000", "174328.985000", "174328.988000", "174328.991000", "174328.994000", "174428.889000", "174428.893000", "174428.896000", "174428.899000", "174428.902000", "174428.905000", "174428.908000", "174428.911000", "174428.914000", "174428.917000", "174428.921000", "174428.924000", "174428.927000", "174428.930000", "174428.933000", "174428.936000", "174428.939000", "174428.942000", "174428.945000", "174428.949000", "174428.952000", "174428.955000", "174428.958000", "174428.961000", "174428.964000", "174428.967000", "174428.971000", "174528.889000", "174528.893000", "174528.896000", "174528.899000", "174528.902000", "174528.905000", "174528.908000", "174528.911000", "174528.914000", "174528.917000", "174528.921000", "174528.924000", "174528.927000", "174528.930000", "174528.933000", "174528.936000", "174528.939000", "174528.943000", "174528.946000", "174528.949000", "174528.952000", "174528.955000", "174528.958000", "174528.961000", "174528.964000", "174528.967000", "174628.889000", "174628.893000", "174628.896000", "174628.899000", "174628.902000", "174628.905000", "174628.908000", "174628.911000", "174628.915000", "174628.918000", "174628.921000", "174628.924000", "174628.927000", "174628.930000", "174628.933000", "174628.936000", "174628.940000", "174628.943000", "174628.946000", "174628.949000", "174628.952000", "174628.955000", "174628.958000", "174628.961000", "174628.965000", "174628.968000", "174628.971000", "174634.195000", "174634.199000"],
      "InstanceNumber": [1, 2, 3, 4, 5, 6, 7, 8, 9, 10, 11, 12, 13, 14, 15, 16, 17, 18, 19, 20, 21, 22, 23, 24, 25, 26, 27, 28, 29, 30, 31, 32, 33, 34, 35, 36, 37, 38, 39, 40, 41, 42, 43, 44, 45, 46, 47, 48, 49, 50, 51, 52, 53, 54, 55, 56, 57, 58, 59, 60, 61, 62, 63, 64, 65, 66, 67, 68, 69, 70, 71, 72, 73, 74, 75, 76, 77, 78, 79, 80, 81, 82, 83, 84, 85, 86, 87, 88, 89, 90, 91, 92, 93, 94, 95, 96, 97, 98, 99, 100, 101, 102, 103, 104, 105, 106, 107],
      "LargestImagePixelValue": [48347, 47907, 20459, 10099, 18605, 20796, 33006, 11185, 9268, 9564, 22850, 31754, 12224, 11189, 10355, 9702, 18989, 9503, 11495, 9428, 10486, 45769, 21615, 12779, 20883, 18062, 9169, 9967, 12959, 9770, 31314, 8896, 23131, 9339, 10208, 33186, 12557, 10036, 21142, 10452, 10782, 47321, 13696, 9048, 11873, 31148, 22373, 10135, 10214, 22432, 10036, 21223, 19832, 11470, 32851, 20124, 9566, 20221, 14041, 10760, 20507, 49189, 19675, 10867, 11157, 10711, 13235, 35319, 18041, 19819, 10793, 10682, 12538, 10603, 22560, 10167, 12042, 10058, 20924, 18463, 10284, 48032, 22049, 13933, 10359, 19322, 20060, 11440, 21102, 12544, 12164, 9873, 21142, 10648, 10515, 11203, 33485, 20525, 9374, 19622, 18831, 43792, 10061, 11962, 19815, 11274, 12401],
      "SequenceName": [
 "ep_b5#1",
 "ep_b5#1",
 "ep_b1000#2",
 "ep_b2005#3",
 "ep_b1000#4",
 "ep_b995#5",
 "ep_b300#6",
 "ep_b1995#7",
 "ep_b2000#8",
 "ep_b2000#9",
 "ep_b995#10",
 "ep_b300#11",
 "ep_b1990#12",
 "ep_b2005#13",
 "ep_b2005#14",
 "ep_b2000#15",
 "ep_b1000#16",
 "ep_b2000#17",
 "ep_b2005#18",
 "ep_b1995#19",
 "ep_b1995#20",
 "ep_b5#21",
 "ep_b995#22",
 "ep_b1990#23",
 "ep_b995#24",
 "ep_b1000#25",
 "ep_b2000#26",
 "ep_b1995#27",
 "ep_b1990#28",
 "ep_b1995#29",
 "ep_b300#30",
 "ep_b2000#31",
 "ep_b1005#32",
 "ep_b2000#33",
 "ep_b2000#34",
 "ep_b300#35",
 "ep_b2005#36",
 "ep_b1995#37",
 "ep_b1005#38",
 "ep_b2000#39",
 "ep_b2005#40",
 "ep_b5#41",
 "ep_b1995#42",
 "ep_b2005#43",
 "ep_b1995#44",
 "ep_b305#45",
 "ep_b1005#46",
 "ep_b2005#47",
 "ep_b2000#48",
 "ep_b1005#49",
 "ep_b2000#50",
 "ep_b995#51",
 "ep_b1000#52",
 "ep_b1995#53",
 "ep_b300#54",
 "ep_b1000#55",
 "ep_b2000#56",
 "ep_b1005#57",
 "ep_b2010#58",
 "ep_b2000#59",
 "ep_b1000#60",
 "ep_b5#61",
 "ep_b1000#62",
 "ep_b1995#63",
 "ep_b2000#64",
 "ep_b2005#65",
 "ep_b2010#66",
 "ep_b300#67",
 "ep_b1005#68",
 "ep_b1000#69",
 "ep_b2000#70",
 "ep_b1995#71",
 "ep_b2005#72",
 "ep_b2005#73",
 "ep_b1005#74",
 "ep_b2000#75",
 "ep_b2005#76",
 "ep_b2000#77",
 "ep_b1005#78",
 "ep_b1000#79",
 "ep_b1995#80",
 "ep_b5#81",
 "ep_b995#82",
 "ep_b2010#83",
 "ep_b2000#84",
 "ep_b995#85",
 "ep_b1000#86",
 "ep_b1995#87",
 "ep_b1005#88",
 "ep_b2005#89",
 "ep_b2005#90",
 "ep_b1995#91",
 "ep_b1005#92",
 "ep_b2005#93",
 "ep_b2000#94",
 "ep_b1995#95",
 "ep_b300#96",
 "ep_b995#97",
 "ep_b2000#98",
 "ep_b1000#99",
 "ep_b995#100",
 "ep_b5#101",
 "ep_b2005#102",
 "ep_b2005#103",
 "ep_b1000#104",
 "ep_b2005#105",
 "ep_b1995#106"
],
      "TriggerTime": [12837.5, 15080.0, 17322.5, 19567.5, 21810.0, 24052.5, 26295.0, 28537.5, 30782.5, 33025.0, 35267.5, 37510.0, 39752.5, 41997.5, 44240.0, 46482.5, 48725.0, 50967.5, 53212.5, 55455.0, 57697.5, 59940.0, 62182.5, 64427.5, 66670.0, 68912.5, 71155.0, 73397.5, 75642.5, 77885.0, 80127.5, 82370.0, 84612.5, 86857.5, 89100.0, 91342.5, 93585.0, 95827.5, 98072.5, 100315.0, 102557.5, 104800.0, 107042.5, 109287.5, 111530.0, 113772.5, 116015.0, 118257.5, 120502.5, 122745.0, 124987.5, 127230.0, 129472.5, 131717.5, 133960.0, 136202.5, 138445.0, 140687.5, 142932.5, 145175.0, 147417.5, 149660.0, 151902.5, 154147.5, 156390.0, 158632.5, 160875.0, 163117.5, 165362.5, 167605.0, 169847.5, 172090.0, 174332.5, 176577.5, 178820.0, 181062.5, 183305.0, 185547.5, 187792.5, 190035.0, 192277.5, 194520.0, 196762.5, 199007.5, 201250.0, 203492.5, 205735.0, 207977.5, 210222.5, 212465.0, 214707.5, 216950.0, 219192.5, 221437.5, 223680.0, 225922.5, 228165.0, 230407.5, 232652.5, 234895.0, 237137.5, 239380.0, 241622.5, 243867.5, 246110.0, 248352.5, 250595.0],
      "WindowCenter": [7332.0, 7271.0, 3530.0, 2299.0, 3546.0, 3495.0, 5403.0, 2295.0, 2244.0, 2266.0, 3537.0, 5368.0, 2254.0, 2207.0, 2286.0, 2294.0, 3525.0, 2262.0, 2309.0, 2251.0, 2245.0, 7221.0, 3534.0, 2312.0, 3538.0, 3504.0, 2261.0, 2244.0, 2266.0, 2228.0, 5350.0, 2208.0, 3527.0, 2278.0, 2265.0, 5379.0, 2299.0, 2260.0, 3475.0, 2295.0, 2219.0, 7216.0, 2333.0, 2209.0, 2301.0, 5330.0, 3540.0, 2196.0, 2275.0, 3486.0, 2292.0, 3518.0, 3497.0, 2295.0, 5344.0, 3502.0, 2252.0, 3519.0, 2273.0, 2291.0, 3499.0, 7263.0, 3540.0, 2252.0, 2296.0, 2261.0, 2283.0, 5433.0, 3458.0, 3523.0, 2268.0, 2331.0, 2333.0, 2284.0, 3476.0, 2281.0, 2321.0, 2266.0, 3467.0, 3518.0, 2289.0, 7228.0, 3512.0, 2309.0, 2246.0, 3535.0, 3518.0, 2249.0, 3465.0, 2311.0, 2308.0, 2220.0, 3504.0, 2263.0, 2289.0, 2309.0, 5404.0, 3552.0, 2274.0, 3516.0, 3514.0, 7207.0, 2206.0, 2251.0, 3516.0, 2250.0, 2328.0],
      "WindowWidth": [15881.0, 15757.0, 8084.0, 5603.0, 8131.0, 8018.0, 11803.0, 5585.0, 5484.0, 5522.0, 8108.0, 11758.0, 5500.0, 5394.0, 5579.0, 5598.0, 8091.0, 5526.0, 5610.0, 5514.0, 5492.0, 15618.0, 8105.0, 5617.0, 8105.0, 8055.0, 5522.0, 5469.0, 5519.0, 5450.0, 11718.0, 5403.0, 8105.0, 5567.0, 5519.0, 11768.0, 5594.0, 5522.0, 7971.0, 5585.0, 5413.0, 15624.0, 5654.0, 5407.0, 5604.0, 11680.0, 8121.0, 5383.0, 5533.0, 8014.0, 5587.0, 8087.0, 8030.0, 5578.0, 11706.0, 8036.0, 5511.0, 8075.0, 5530.0, 5558.0, 8012.0, 15711.0, 8115.0, 5496.0, 5581.0, 5526.0, 5562.0, 11865.0, 7956.0, 8087.0, 5505.0, 5666.0, 5653.0, 5568.0, 7997.0, 5550.0, 5636.0, 5528.0, 7972.0, 8075.0, 5579.0, 15632.0, 8063.0, 5605.0, 5493.0, 8113.0, 8058.0, 5486.0, 7968.0, 5615.0, 5609.0, 5429.0, 8055.0, 5533.0, 5554.0, 5616.0, 11810.0, 8138.0, 5549.0, 8078.0, 8065.0, 15620.0, 5392.0, 5497.0, 8062.0, 5480.0, 5653.0]
    },
    "slices": {}
  }
}