{
  "AcquisitionMatrixPE": 110,
  "AcquisitionNumber": 1,
  "AcquisitionTime": "15:37:30.472500",
  "BandwidthPerPixelPhaseEncode": 12.987,
  "BaseResolution": 110,
  "BodyPartExamined": "BRAIN",
  "CoilCombinationMethod": "Sum of Squares",
  "ConsistencyInfo": "N4_VE11C_LATEST_20160120",
  "ConversionSoftware": "dcm2niix",
  "ConversionSoftwareVersion": "v1.0.20211006",
  "DerivedVendorReportedEchoSpacing": 0.000700001,
  "DeviceSerialNumber": "167006",
  "DiffusionScheme": "Monopolar",
  "DwellTime": 2.7e-06,
  "EchoTime": 0.0816,
  "EchoTrainLength": 83,
  "EffectiveEchoSpacing": 0.000700001,
  "FlipAngle": 78,
  "HeudiconvVersion": "0.5.3.post569+g418601f",
  "ImageComments": "Unaliased MB3/PE3/LB SENSE1",
  "ImageOrientationPatientDICOM": [1, 0, 0, 0, 0.927184, -0.374607],
  "ImageOrientationText": "Tra>Cor(-22.0)",
  "ImageType": [
    "ORIGINAL",
    "PRIMARY",
    "DIFFUSION",
    "NONE",
    "MB",
    "ND",
    "MOSAIC"
],
  "ImagingFrequency": 123.259,
  "InPlanePhaseEncodingDirectionDICOM": "COL",
  "InstitutionAddress": "Chemin Queen-Mary 4565,Montreal,District,CA,H3W 1W5",
  "InstitutionName": "IUGM",
  "InstitutionalDepartmentName": "Department",
  "MRAcquisitionType": "2D",
  "MagneticFieldStrength": 3,
  "Manufacturer": "Siemens",
  "ManufacturersModelName": "Prisma_fit",
  "MatrixCoilMode": "SENSE",
  "Modality": "MR",
  "MultibandAccelerationFactor": 3,
  "PartialFourier": 0.75,
  "PatientPosition": "HFS",
  "PercentPhaseFOV": 100,
  "PercentSampling": 100,
  "PhaseEncodingDirection": "j",
  "PhaseEncodingSteps": 83,
  "PhaseResolution": 1,
  "PixelBandwidth": 1685,
  "ProcedureStepDescription": "anat^generic",
  "ProtocolName": "dMRI_dir98_PA_test_cmrr",
  "PulseSequenceDetails": "%CustomerSeq%\\cmrr_mbep2d_diff",
  "ReceiveCoilActiveElements": "HC1-6",
  "ReceiveCoilName": "HeadNeck_64",
  "ReconMatrixPE": 110,
  "RepetitionTime": 2.334,
  "SAR": 0.110819,
  "ScanOptions": "PFP\\EXT",
  "ScanningSequence": "EP",
  "SequenceName": "ep_b5#1",
  "SequenceVariant": "SK\\SS",
  "SeriesDescription": "dMRI_dir98_PA_test_cmrr",
  "SeriesNumber": 11,
  "ShimSetting": [627, -7255, -8854, 680, -12, -269, -17, -13],
  "SliceThickness": 2,
  "SliceTiming": [0, 1.2175, 0.1225, 1.34, 0.2425, 1.46, 0.365, 1.5825, 0.4875, 1.705, 0.6075, 1.8275, 0.73, 1.9475, 0.8525, 2.07, 0.975, 2.1925, 1.095, 0, 1.2175, 0.1225, 1.34, 0.2425, 1.46, 0.365, 1.5825, 0.4875, 1.705, 0.6075, 1.8275, 0.73, 1.9475, 0.8525, 2.07, 0.975, 2.1925, 1.095, 0, 1.2175, 0.1225, 1.34, 0.2425, 1.46, 0.365, 1.5825, 0.4875, 1.705, 0.6075, 1.8275, 0.73, 1.9475, 0.8525, 2.07, 0.975, 2.1925, 1.095],
  "SoftwareVersions": "syngo MR E11",
  "SpacingBetweenSlices": 2,
  "StationName": "MRC35049",
  "TotalReadoutTime": 0.0763001,
  "TxRefAmp": 218.391,
  "WipMemBlock": "1fa21ba6-be45-4cfa-aa08-a4ae922e4005||Sequence: R016 ve11c/master r/e634e98; Dec 19 2017 11:11:25 by eja",
  "dcmmeta_affine": [
    [-2.0, 0.0, 0.0, 109.49686431884766],
    [0.0, 1.854367733001709, -0.7492132186889648, -72.19947052001953],
    [0.0, 0.7492132186889648, 1.8543676137924194, -74.25337219238281],
    [0.0, 0.0, 0.0, 1.0]
],
  "dcmmeta_reorient_transform": [
    [0.0, -1.0, 0.0, 109.0],
    [1.0, 0.0, 0.0, 0.0],
    [0.0, 0.0, 1.0, 0.0],
    [0.0, 0.0, 0.0, 1.0]
],
  "dcmmeta_shape": [110, 110, 57, 99],
  "dcmmeta_slice_dim": 2,
  "dcmmeta_version": 0.6,
  "global": {
    "const": {
      "AcquisitionMatrix": [110, 0, 0, 110],
      "AngioFlag": "N",
      "BitsAllocated": 16,
      "BitsStored": 16,
      "BodyPartExamined": "BRAIN",
      "CardiacNumberOfImages": 1,
      "Columns": 880,
      "EchoNumbers": 1,
      "EchoTime": 81.6,
      "EchoTrainLength": 83,
      "FlipAngle": 78.0,
      "HighBit": 15,
      "ImageOrientationPatient": [1.0, 0.0, 0.0, 0.0, 0.92718384501902, -0.3746066170475],
      "ImagePositionPatient": [-879.49686384201, -843.85816591044, 295.85796271124],
      "ImageType": [
        "ORIGINAL",
        "PRIMARY",
        "DIFFUSION",
        "NONE",
        "MB",
        "ND",
        "MOSAIC"
],
      "ImagedNucleus": "1H",
      "ImagingFrequency": 123.25894,
      "InPlanePhaseEncodingDirection": "COL",
      "MRAcquisitionType": "2D",
      "MagneticFieldStrength": 3.0,
      "Manufacturer": "SIEMENS",
      "ManufacturerModelName": "Prisma_fit",
      "Modality": "MR",
      "NominalInterval": 0,
      "NumberOfAverages": 1.0,
      "NumberOfPhaseEncodingSteps": 83,
      "PercentPhaseFieldOfView": 100.0,
      "PercentSampling": 100.0,
      "PerformedProcedureStepStartTime": "151335.306000",
      "PhotometricInterpretation": "MONOCHROME2",
      "PixelBandwidth": 1685.0,
      "PixelRepresentation": 0,
      "PixelSpacing": [2.0, 2.0],
      "ProtocolName": "dMRI_dir98_PA_test_cmrr",
      "RepetitionTime": 2334.0,
      "Rows": 880,
      "SAR": 0.11081874876726,
      "SamplesPerPixel": 1,
      "ScanOptions": [
        "PFP",
        "EXT"
],
      "ScanningSequence": "EP",
      "SequenceVariant": [
        "SK",
        "SS"
],
      "SeriesDescription": "dMRI_dir98_PA_test_cmrr",
      "SeriesNumber": 11,
      "SeriesTime": "153825.698000",
      "SliceLocation": -41.800129353485,
      "SliceThickness": 2.0,
      "SmallestImagePixelValue": 0,
      "SoftwareVersions": "syngo MR E11",
      "SpacingBetweenSlices": 1.9999999581456,
      "SpecificCharacterSet": "ISO_IR 100",
      "StudyID": "1",
      "StudyTime": "151335.208000",
      "TransmitCoilName": "Body",
      "VariableFlipAngleFlag": "N",
      "WindowCenterWidthExplanation": "Algo1",
      "dBdt": 0.0},
    "slices": {}
  },
  "time": {
    "samples": {
      "AcquisitionNumber": [1, 2, 3, 4, 5, 6, 7, 8, 9, 10, 11, 12, 13, 14, 15, 16, 17, 18, 19, 20, 21, 22, 23, 24, 25, 26, 27, 28, 29, 30, 31, 32, 33, 34, 35, 36, 37, 38, 39, 40, 41, 42, 43, 44, 45, 46, 47, 48, 49, 50, 51, 52, 53, 54, 55, 56, 57, 58, 59, 60, 61, 62, 63, 64, 65, 66, 67, 68, 69, 70, 71, 72, 73, 74, 75, 76, 77, 78, 79, 80, 81, 82, 83, 84, 85, 86, 87, 88, 89, 90, 91, 92, 93, 94, 95, 96, 97, 98, 99],
      "AcquisitionTime": ["153730.472500", "153732.805000", "153735.140000", "153737.475000", "153739.807500", "153742.142500", "153744.475000", "153746.810000", "153749.145000", "153751.477500", "153753.812500", "153756.145000", "153758.480000", "153800.815000", "153803.147500", "153805.482500", "153807.815000", "153810.150000", "153812.485000", "153814.817500", "153817.152500", "153819.485000", "153821.820000", "153824.155000", "153826.487500", "153828.822500", "153831.155000", "153833.490000", "153835.825000", "153838.157500", "153840.492500", "153842.825000", "153845.160000", "153847.495000", "153849.827500", "153852.162500", "153854.495000", "153856.830000", "153859.165000", "153901.497500", "153903.832500", "153906.165000", "153908.500000", "153910.835000", "153913.167500", "153915.502500", "153917.835000", "153920.170000", "153922.505000", "153924.837500", "153927.172500", "153929.505000", "153931.840000", "153934.175000", "153936.507500", "153938.842500", "153941.175000", "153943.510000", "153945.845000", "153948.177500", "153950.512500", "153952.845000", "153955.180000", "153957.515000", "153959.847500", "154002.182500", "154004.515000", "154006.850000", "154009.185000", "154011.517500", "154013.852500", "154016.185000", "154018.520000", "154020.855000", "154023.187500", "154025.522500", "154027.855000", "154030.190000", "154032.525000", "154034.857500", "154037.192500", "154039.525000", "154041.860000", "154044.195000", "154046.527500", "154048.862500", "154051.195000", "154053.530000", "154055.865000", "154058.197500", "154100.532500", "154102.865000", "154105.200000", "154107.535000", "154109.867500", "154112.202500", "154114.535000", "154116.870000", "154119.205000"],
      "ContentTime": ["153825.701000", "153825.705000", "153825.708000", "153825.717000", "153825.720000", "153825.723000", "153825.727000", "153825.730000", "153825.733000", "153825.736000", "153825.739000", "153825.746000", "153825.750000", "153825.753000", "153825.756000", "153825.759000", "153825.762000", "153825.766000", "153825.769000", "153825.772000", "153825.775000", "153825.778000", "153825.782000", "153925.662000", "153925.666000", "153925.669000", "153925.672000", "153925.675000", "153925.678000", "153925.686000", "153925.689000", "153925.693000", "153925.696000", "153925.699000", "153925.709000", "153925.712000", "153925.716000", "153925.719000", "153925.722000", "153925.725000", "153925.728000", "153925.732000", "153925.735000", "153925.738000", "153925.741000", "153925.744000", "153925.747000", "153925.750000", "153925.754000", "154025.661000", "154025.665000", "154025.668000", "154025.671000", "154025.675000", "154025.678000", "154025.681000", "154025.684000", "154025.688000", "154025.691000", "154025.694000", "154025.697000", "154025.700000", "154025.704000", "154025.707000", "154025.710000", "154025.713000", "154025.716000", "154025.719000", "154025.723000", "154025.726000", "154025.729000", "154025.732000", "154025.735000", "154025.738000", "154123.722000", "154123.725000", "154123.728000", "154123.732000", "154123.743000", "154123.746000", "154123.750000", "154123.753000", "154123.761000", "154123.764000", "154123.767000", "154123.770000", "154123.773000", "154123.776000", "154123.780000", "154123.783000", "154123.786000", "154123.789000", "154123.792000", "154123.795000", "154123.799000", "154123.802000", "154123.805000", "154123.808000", "154123.811000"],
      "InstanceCreationTime": ["153825.701000", "153825.705000", "153825.708000", "153825.717000", "153825.720000", "153825.723000", "153825.727000", "153825.730000", "153825.733000", "153825.736000", "153825.739000", "153825.746000", "153825.750000", "153825.753000", "153825.756000", "153825.759000", "153825.762000", "153825.766000", "153825.769000", "153825.772000", "153825.775000", "153825.778000", "153825.782000", "153925.662000", "153925.666000", "153925.669000", "153925.672000", "153925.675000", "153925.678000", "153925.686000", "153925.689000", "153925.693000", "153925.696000", "153925.699000", "153925.709000", "153925.712000", "153925.716000", "153925.719000", "153925.722000", "153925.725000", "153925.728000", "153925.732000", "153925.735000", "153925.738000", "153925.741000", "153925.744000", "153925.747000", "153925.750000", "153925.754000", "154025.661000", "154025.665000", "154025.668000", "154025.671000", "154025.675000", "154025.678000", "154025.681000", "154025.684000", "154025.688000", "154025.691000", "154025.694000", "154025.697000", "154025.700000", "154025.704000", "154025.707000", "154025.710000", "154025.713000", "154025.716000", "154025.719000", "154025.723000", "154025.726000", "154025.729000", "154025.732000", "154025.735000", "154025.738000", "154123.722000", "154123.725000", "154123.728000", "154123.732000", "154123.743000", "154123.746000", "154123.750000", "154123.753000", "154123.761000", "154123.764000", "154123.767000", "154123.770000", "154123.773000", "154123.776000", "154123.780000", "154123.783000", "154123.786000", "154123.789000", "154123.792000", "154123.795000", "154123.799000", "154123.802000", "154123.805000", "154123.808000", "154123.811000"],
      "InstanceNumber": [1, 2, 3, 4, 5, 6, 7, 8, 9, 10, 11, 12, 13, 14, 15, 16, 17, 18, 19, 20, 21, 22, 23, 24, 25, 26, 27, 28, 29, 30, 31, 32, 33, 34, 35, 36, 37, 38, 39, 40, 41, 42, 43, 44, 45, 46, 47, 48, 49, 50, 51, 52, 53, 54, 55, 56, 57, 58, 59, 60, 61, 62, 63, 64, 65, 66, 67, 68, 69, 70, 71, 72, 73, 74, 75, 76, 77, 78, 79, 80, 81, 82, 83, 84, 85, 86, 87, 88, 89, 90, 91, 92, 93, 94, 95, 96, 97, 98, 99],
      "LargestImagePixelValue": [34980, 34593, 10704, 5060, 9707, 5672, 9770, 4977, 10014, 4422, 10300, 5249, 11461, 5762, 9826, 5733, 10231, 35695, 6663, 11052, 5103, 10463, 5693, 9645, 6228, 9693, 4912, 11716, 4864, 10963, 5720, 10182, 6232, 35731, 11202, 4623, 9752, 4659, 9970, 4994, 11537, 4854, 9931, 6787, 9934, 4381, 10200, 5615, 10677, 33654, 5995, 11895, 4885, 10173, 4735, 10750, 6189, 11165, 4959, 10241, 5006, 9542, 6057, 10283, 4819, 34894, 10431, 7521, 10822, 4557, 11300, 7577, 9493, 4551, 10342, 5079, 10942, 5809, 12052, 4793, 9959, 33624, 6516, 10426, 5171, 11773, 4914, 8737, 5027, 9693, 4885, 9960, 5356, 11208, 6698, 10221, 5804, 10721, 5764],
      "SequenceName": [
 "ep_b5#1",
 "ep_b5#1",
 "ep_b1490#2",
 "ep_b2990#3",
 "ep_b1495#4",
 "ep_b3005#5",
 "ep_b1500#6",
 "ep_b2985#7",
 "ep_b1495#8",
 "ep_b3005#9",
 "ep_b1490#10",
 "ep_b2995#11",
 "ep_b1495#12",
 "ep_b2990#13",
 "ep_b1500#14",
 "ep_b2985#15",
 "ep_b1500#16",
 "ep_b5#17",
 "ep_b3005#18",
 "ep_b1490#19",
 "ep_b2995#20",
 "ep_b1495#21",
 "ep_b3000#22",
 "ep_b1495#23",
 "ep_b3000#24",
 "ep_b1490#25",
 "ep_b2985#26",
 "ep_b1505#27",
 "ep_b2990#28",
 "ep_b1495#29",
 "ep_b3000#30",
 "ep_b1490#31",
 "ep_b3000#32",
 "ep_b5#33",
 "ep_b1505#34",
 "ep_b3000#35",
 "ep_b1490#36",
 "ep_b2985#37",
 "ep_b1495#38",
 "ep_b2995#39",
 "ep_b1500#40",
 "ep_b2995#41",
 "ep_b1500#42",
 "ep_b2990#43",
 "ep_b1495#44",
 "ep_b3000#45",
 "ep_b1495#46",
 "ep_b3000#47",
 "ep_b1490#48",
 "ep_b5#49",
 "ep_b3000#50",
 "ep_b1495#51",
 "ep_b2995#52",
 "ep_b1505#53",
 "ep_b2995#54",
 "ep_b1495#55",
 "ep_b2990#56",
 "ep_b1490#57",
 "ep_b2995#58",
 "ep_b1500#59",
 "ep_b3000#60",
 "ep_b1500#61",
 "ep_b2985#62",
 "ep_b1500#63",
 "ep_b2990#64",
 "ep_b5#65",
 "ep_b1505#66",
 "ep_b3005#67",
 "ep_b1495#68",
 "ep_b3000#69",
 "ep_b1505#70",
 "ep_b3005#71",
 "ep_b1500#72",
 "ep_b3005#73",
 "ep_b1495#74",
 "ep_b2995#75",
 "ep_b1495#76",
 "ep_b2995#77",
 "ep_b1500#78",
 "ep_b3000#79",
 "ep_b1490#80",
 "ep_b5#81",
 "ep_b2990#82",
 "ep_b1500#83",
 "ep_b2985#84",
 "ep_b1495#85",
 "ep_b2995#86",
 "ep_b1495#87",
 "ep_b2990#88",
 "ep_b1490#89",
 "ep_b2985#90",
 "ep_b1500#91",
 "ep_b3000#92",
 "ep_b1495#93",
 "ep_b3005#94",
 "ep_b1495#95",
 "ep_b2990#96",
 "ep_b1500#97",
 "ep_b3000#98"
],
      "TriggerTime": [13297.5, 15630.0, 17965.0, 20300.0, 22632.5, 24967.5, 27300.0, 29635.0, 31970.0, 34302.5, 36637.5, 38970.0, 41305.0, 43640.0, 45972.5, 48307.5, 50640.0, 52975.0, 55310.0, 57642.5, 59977.5, 62310.0, 64645.0, 66980.0, 69312.5, 71647.5, 73980.0, 76315.0, 78650.0, 80982.5, 83317.5, 85650.0, 87985.0, 90320.0, 92652.5, 94987.5, 97320.0, 99655.0, 101990.0, 104322.5, 106657.5, 108990.0, 111325.0, 113660.0, 115992.5, 118327.5, 120660.0, 122995.0, 125330.0, 127662.5, 129997.5, 132330.0, 134665.0, 137000.0, 139332.5, 141667.5, 144000.0, 146335.0, 148670.0, 151002.5, 153337.5, 155670.0, 158005.0, 160340.0, 162672.5, 165007.5, 167340.0, 169675.0, 172010.0, 174342.5, 176677.5, 179010.0, 181345.0, 183680.0, 186012.5, 188347.5, 190680.0, 193015.0, 195350.0, 197682.5, 200017.5, 202350.0, 204685.0, 207020.0, 209352.5, 211687.5, 214020.0, 216355.0, 218690.0, 221022.5, 223357.5, 225690.0, 228025.0, 230360.0, 232692.5, 235027.5, 237360.0, 239695.0, 242030.0],
      "WindowCenter": [6862.0, 6832.0, 2540.0, 1481.0, 2519.0, 1511.0, 2516.0, 1482.0, 2514.0, 1422.0, 2527.0, 1516.0, 2589.0, 1512.0, 2495.0, 1494.0, 2497.0, 6793.0, 1520.0, 2568.0, 1461.0, 2574.0, 1524.0, 2523.0, 1544.0, 2502.0, 1433.0, 2554.0, 1454.0, 2539.0, 1460.0, 2504.0, 1527.0, 6789.0, 2554.0, 1437.0, 2526.0, 1447.0, 2539.0, 1494.0, 2613.0, 1468.0, 2495.0, 1556.0, 2543.0, 1434.0, 2556.0, 1488.0, 2521.0, 6751.0, 1507.0, 2597.0, 1469.0, 2510.0, 1468.0, 2508.0, 1542.0, 2569.0, 1426.0, 2502.0, 1444.0, 2498.0, 1492.0, 2537.0, 1473.0, 6769.0, 2537.0, 1561.0, 2523.0, 1441.0, 2584.0, 1559.0, 2524.0, 1422.0, 2512.0, 1470.0, 2541.0, 1540.0, 2573.0, 1431.0, 2521.0, 6709.0, 1523.0, 2507.0, 1462.0, 2572.0, 1470.0, 2500.0, 1497.0, 2489.0, 1439.0, 2523.0, 1508.0, 2559.0, 1497.0, 2512.0, 1495.0, 2497.0, 1543.0],
      "WindowWidth": [14875.0, 14807.0, 6098.0, 3840.0, 6056.0, 3918.0, 6037.0, 3849.0, 6040.0, 3715.0, 6072.0, 3933.0, 6205.0, 3918.0, 5997.0, 3868.0, 6003.0, 14699.0, 3920.0, 6154.0, 3792.0, 6162.0, 3943.0, 6054.0, 3993.0, 6011.0, 3734.0, 6130.0, 3790.0, 6089.0, 3783.0, 6016.0, 3952.0, 14706.0, 6129.0, 3753.0, 6069.0, 3768.0, 6076.0, 3872.0, 6252.0, 3820.0, 5996.0, 4011.0, 6097.0, 3737.0, 6120.0, 3854.0, 6058.0, 14617.0, 3898.0, 6213.0, 3829.0, 6034.0, 3820.0, 6022.0, 3979.0, 6160.0, 3713.0, 6004.0, 3760.0, 6006.0, 3859.0, 6082.0, 3840.0, 14650.0, 6093.0, 4002.0, 6056.0, 3760.0, 6192.0, 4000.0, 6054.0, 3714.0, 6039.0, 3825.0, 6094.0, 3979.0, 6171.0, 3725.0, 6047.0, 14524.0, 3931.0, 6015.0, 3793.0, 6165.0, 3826.0, 6015.0, 3883.0, 5987.0, 3754.0, 6055.0, 3904.0, 6139.0, 3863.0, 6029.0, 3868.0, 6001.0, 3990.0]
    },
    "slices": {}
  }
}