{
  "AcquisitionMatrixPE": 110,
  "AcquisitionNumber": 1,
  "AcquisitionTime": "15:33:20.502500",
  "BandwidthPerPixelPhaseEncode": 12.987,
  "BaseResolution": 110,
  "BodyPartExamined": "BRAIN",
  "CoilCombinationMethod": "Sum of Squares",
  "ConsistencyInfo": "N4_VE11C_LATEST_20160120",
  "ConversionSoftware": "dcm2niix",
  "ConversionSoftwareVersion": "v1.0.20211006",
  "DerivedVendorReportedEchoSpacing": 0.000700001,
  "DeviceSerialNumber": "167006",
  "DiffusionScheme": "Monopolar",
  "DwellTime": 2.7e-06,
  "EchoTime": 0.0816,
  "EchoTrainLength": 83,
  "EffectiveEchoSpacing": 0.000700001,
  "FlipAngle": 78,
  "HeudiconvVersion": "0.5.3.post569+g418601f",
  "ImageComments": "Unaliased MB3/PE3/LB SENSE1",
  "ImageOrientationPatientDICOM": [1, 0, 0, 0, 0.927184, -0.374607],
  "ImageOrientationText": "Tra>Cor(-22.0)",
  "ImageType": [
    "ORIGINAL",
    "PRIMARY",
    "DIFFUSION",
    "NONE",
    "MB",
    "ND",
    "MOSAIC"
],
  "ImagingFrequency": 123.259,
  "InPlanePhaseEncodingDirectionDICOM": "COL",
  "InstitutionAddress": "Chemin Queen-Mary 4565,Montreal,District,CA,H3W 1W5",
  "InstitutionName": "IUGM",
  "InstitutionalDepartmentName": "Department",
  "MRAcquisitionType": "2D",
  "MagneticFieldStrength": 3,
  "Manufacturer": "Siemens",
  "ManufacturersModelName": "Prisma_fit",
  "MatrixCoilMode": "SENSE",
  "Modality": "MR",
  "MultibandAccelerationFactor": 3,
  "PartialFourier": 0.75,
  "PatientPosition": "HFS",
  "PercentPhaseFOV": 100,
  "PercentSampling": 100,
  "PhaseEncodingDirection": "j-",
  "PhaseEncodingSteps": 83,
  "PhaseResolution": 1,
  "PixelBandwidth": 1685,
  "ProcedureStepDescription": "anat^generic",
  "ProtocolName": "dMRI_dir98_AP_test_cmrr",
  "PulseSequenceDetails": "%CustomerSeq%\\cmrr_mbep2d_diff",
  "ReceiveCoilActiveElements": "HC1-6",
  "ReceiveCoilName": "HeadNeck_64",
  "ReconMatrixPE": 110,
  "RepetitionTime": 2.334,
  "SAR": 0.110819,
  "ScanOptions": "PFP\\EXT",
  "ScanningSequence": "EP",
  "SequenceName": "ep_b5#1",
  "SequenceVariant": "SK\\SS",
  "SeriesDescription": "dMRI_dir98_AP_test_cmrr",
  "SeriesNumber": 7,
  "ShimSetting": [627, -7255, -8854, 680, -12, -269, -17, -13],
  "SliceThickness": 2,
  "SliceTiming": [0, 1.2175, 0.12, 1.3375, 0.2425, 1.46, 0.365, 1.5825, 0.485, 1.705, 0.6075, 1.825, 0.73, 1.9475, 0.8525, 2.07, 0.9725, 2.19, 1.095, 0, 1.2175, 0.12, 1.3375, 0.2425, 1.46, 0.365, 1.5825, 0.485, 1.705, 0.6075, 1.825, 0.73, 1.9475, 0.8525, 2.07, 0.9725, 2.19, 1.095, 0, 1.2175, 0.12, 1.3375, 0.2425, 1.46, 0.365, 1.5825, 0.485, 1.705, 0.6075, 1.825, 0.73, 1.9475, 0.8525, 2.07, 0.9725, 2.19, 1.095],
  "SoftwareVersions": "syngo MR E11",
  "SpacingBetweenSlices": 2,
  "StationName": "MRC35049",
  "TotalReadoutTime": 0.0763001,
  "TxRefAmp": 218.391,
  "WipMemBlock": "9f035227-a7c5-4c28-926a-96b3eada0ce3||Sequence: R016 ve11c/master r/e634e98; Dec 19 2017 11:11:25 by eja",
  "dcmmeta_affine": [
    [-2.0, 0.0, 0.0, 109.49686431884766],
    [0.0, 1.854367733001709, -0.7492132186889648, -72.19947052001953],
    [0.0, 0.7492132186889648, 1.8543676137924194, -74.25337219238281],
    [0.0, 0.0, 0.0, 1.0]
],
  "dcmmeta_reorient_transform": [
    [0.0, -1.0, 0.0, 109.0],
    [1.0, 0.0, 0.0, 0.0],
    [0.0, 0.0, 1.0, 0.0],
    [0.0, 0.0, 0.0, 1.0]
],
  "dcmmeta_shape": [110, 110, 57, 99],
  "dcmmeta_slice_dim": 2,
  "dcmmeta_version": 0.6,
  "global": {
    "const": {
      "AcquisitionMatrix": [110, 0, 0, 110],
      "AngioFlag": "N",
      "BitsAllocated": 16,
      "BitsStored": 16,
      "BodyPartExamined": "BRAIN",
      "CardiacNumberOfImages": 1,
      "Columns": 880,
      "EchoNumbers": 1,
      "EchoTime": 81.6,
      "EchoTrainLength": 83,
      "FlipAngle": 78.0,
      "HighBit": 15,
      "ImageOrientationPatient": [1.0, 0.0, 0.0, 0.0, 0.92718384501902, -0.3746066170475],
      "ImagePositionPatient": [-879.49686384201, -843.85816591044, 295.85796271124],
      "ImageType": [
        "ORIGINAL",
        "PRIMARY",
        "DIFFUSION",
        "NONE",
        "MB",
        "ND",
        "MOSAIC"
],
      "ImagedNucleus": "1H",
      "ImagingFrequency": 123.258937,
      "InPlanePhaseEncodingDirection": "COL",
      "MRAcquisitionType": "2D",
      "MagneticFieldStrength": 3.0,
      "Manufacturer": "SIEMENS",
      "ManufacturerModelName": "Prisma_fit",
      "Modality": "MR",
      "NominalInterval": 0,
      "NumberOfAverages": 1.0,
      "NumberOfPhaseEncodingSteps": 83,
      "PercentPhaseFieldOfView": 100.0,
      "PercentSampling": 100.0,
      "PerformedProcedureStepStartTime": "151335.306000",
      "PhotometricInterpretation": "MONOCHROME2",
      "PixelBandwidth": 1685.0,
      "PixelRepresentation": 0,
      "PixelSpacing": [2.0, 2.0],
      "ProtocolName": "dMRI_dir98_AP_test_cmrr",
      "RepetitionTime": 2334.0,
      "Rows": 880,
      "SAR": 0.11081874876726,
      "SamplesPerPixel": 1,
      "ScanOptions": [
        "PFP",
        "EXT"
],
      "ScanningSequence": "EP",
      "SequenceVariant": [
        "SK",
        "SS"
],
      "SeriesDescription": "dMRI_dir98_AP_test_cmrr",
      "SeriesNumber": 7,
      "SeriesTime": "153426.635000",
      "SliceLocation": -41.800129353485,
      "SliceThickness": 2.0,
      "SmallestImagePixelValue": 0,
      "SoftwareVersions": "syngo MR E11",
      "SpacingBetweenSlices": 1.9999999581456,
      "SpecificCharacterSet": "ISO_IR 100",
      "StudyID": "1",
      "StudyTime": "151335.208000",
      "TransmitCoilName": "Body",
      "VariableFlipAngleFlag": "N",
      "WindowCenterWidthExplanation": "Algo1",
      "dBdt": 0.0},
    "slices": {}
  },
  "time": {
    "samples": {
      "AcquisitionNumber": [1, 2, 3, 4, 5, 6, 7, 8, 9, 10, 11, 12, 13, 14, 15, 16, 17, 18, 19, 20, 21, 22, 23, 24, 25, 26, 27, 28, 29, 30, 31, 32, 33, 34, 35, 36, 37, 38, 39, 40, 41, 42, 43, 44, 45, 46, 47, 48, 49, 50, 51, 52, 53, 54, 55, 56, 57, 58, 59, 60, 61, 62, 63, 64, 65, 66, 67, 68, 69, 70, 71, 72, 73, 74, 75, 76, 77, 78, 79, 80, 81, 82, 83, 84, 85, 86, 87, 88, 89, 90, 91, 92, 93, 94, 95, 96, 97, 98, 99],
      "AcquisitionTime": ["153320.502500", "153322.835000", "153325.170000", "153327.502500", "153329.837500", "153332.172500", "153334.505000", "153336.840000", "153339.172500", "153341.507500", "153343.842500", "153346.175000", "153348.510000", "153350.842500", "153353.177500", "153355.512500", "153357.845000", "153400.180000", "153402.512500", "153404.847500", "153407.182500", "153409.515000", "153411.850000", "153414.182500", "153416.517500", "153418.852500", "153421.185000", "153423.520000", "153425.852500", "153428.187500", "153430.522500", "153432.855000", "153435.190000", "153437.522500", "153439.857500", "153442.192500", "153444.525000", "153446.860000", "153449.192500", "153451.527500", "153453.862500", "153456.195000", "153458.530000", "153500.862500", "153503.197500", "153505.532500", "153507.865000", "153510.200000", "153512.532500", "153514.867500", "153517.202500", "153519.535000", "153521.870000", "153524.202500", "153526.537500", "153528.872500", "153531.205000", "153533.540000", "153535.872500", "153538.207500", "153540.542500", "153542.875000", "153545.210000", "153547.542500", "153549.877500", "153552.212500", "153554.545000", "153556.880000", "153559.212500", "153601.547500", "153603.882500", "153606.215000", "153608.550000", "153610.882500", "153613.217500", "153615.552500", "153617.885000", "153620.220000", "153622.552500", "153624.887500", "153627.222500", "153629.555000", "153631.890000", "153634.222500", "153636.557500", "153638.892500", "153641.225000", "153643.560000", "153645.892500", "153648.227500", "153650.562500", "153652.895000", "153655.230000", "153657.562500", "153659.897500", "153702.232500", "153704.565000", "153706.900000", "153709.232500"],
      "ContentTime": ["153426.638000", "153426.642000", "153426.645000", "153426.648000", "153426.660000", "153426.663000", "153426.666000", "153426.669000", "153426.672000", "153426.676000", "153426.679000", "153426.685000", "153426.689000", "153426.692000", "153426.695000", "153426.698000", "153426.701000", "153426.709000", "153426.713000", "153426.716000", "153426.719000", "153426.722000", "153426.725000", "153426.728000", "153426.732000", "153426.735000", "153426.738000", "153526.559000", "153526.563000", "153526.566000", "153526.569000", "153526.572000", "153526.576000", "153526.579000", "153526.582000", "153526.585000", "153526.588000", "153526.591000", "153526.595000", "153526.598000", "153526.601000", "153526.604000", "153526.607000", "153526.610000", "153526.613000", "153526.617000", "153526.620000", "153526.623000", "153526.626000", "153526.629000", "153526.632000", "153526.635000", "153526.639000", "153626.559000", "153626.563000", "153626.566000", "153626.569000", "153626.573000", "153626.576000", "153626.579000", "153626.582000", "153626.585000", "153626.589000", "153626.592000", "153626.595000", "153626.598000", "153626.601000", "153626.604000", "153626.608000", "153626.611000", "153626.614000", "153626.617000", "153626.620000", "153626.623000", "153626.627000", "153626.630000", "153626.633000", "153626.636000", "153626.639000", "153714.347000", "153714.351000", "153714.354000", "153714.357000", "153714.368000", "153714.371000", "153714.374000", "153714.377000", "153714.385000", "153714.388000", "153714.391000", "153714.395000", "153714.398000", "153714.401000", "153714.404000", "153714.432000", "153714.443000", "153714.446000", "153714.449000", "153714.452000"],
      "InstanceCreationTime": ["153426.638000", "153426.642000", "153426.645000", "153426.648000", "153426.660000", "153426.663000", "153426.666000", "153426.669000", "153426.672000", "153426.676000", "153426.679000", "153426.685000", "153426.689000", "153426.692000", "153426.695000", "153426.698000", "153426.701000", "153426.709000", "153426.713000", "153426.716000", "153426.719000", "153426.722000", "153426.725000", "153426.728000", "153426.732000", "153426.735000", "153426.738000", "153526.559000", "153526.563000", "153526.566000", "153526.569000", "153526.572000", "153526.576000", "153526.579000", "153526.582000", "153526.585000", "153526.588000", "153526.591000", "153526.595000", "153526.598000", "153526.601000", "153526.604000", "153526.607000", "153526.610000", "153526.613000", "153526.617000", "153526.620000", "153526.623000", "153526.626000", "153526.629000", "153526.632000", "153526.635000", "153526.639000", "153626.559000", "153626.563000", "153626.566000", "153626.569000", "153626.573000", "153626.576000", "153626.579000", "153626.582000", "153626.585000", "153626.589000", "153626.592000", "153626.595000", "153626.598000", "153626.601000", "153626.604000", "153626.608000", "153626.611000", "153626.614000", "153626.617000", "153626.620000", "153626.623000", "153626.627000", "153626.630000", "153626.633000", "153626.636000", "153626.639000", "153714.347000", "153714.351000", "153714.354000", "153714.357000", "153714.368000", "153714.371000", "153714.374000", "153714.377000", "153714.385000", "153714.388000", "153714.391000", "153714.395000", "153714.398000", "153714.401000", "153714.404000", "153714.432000", "153714.443000", "153714.446000", "153714.449000", "153714.452000"],
      "InstanceNumber": [1, 2, 3, 4, 5, 6, 7, 8, 9, 10, 11, 12, 13, 14, 15, 16, 17, 18, 19, 20, 21, 22, 23, 24, 25, 26, 27, 28, 29, 30, 31, 32, 33, 34, 35, 36, 37, 38, 39, 40, 41, 42, 43, 44, 45, 46, 47, 48, 49, 50, 51, 52, 53, 54, 55, 56, 57, 58, 59, 60, 61, 62, 63, 64, 65, 66, 67, 68, 69, 70, 71, 72, 73, 74, 75, 76, 77, 78, 79, 80, 81, 82, 83, 84, 85, 86, 87, 88, 89, 90, 91, 92, 93, 94, 95, 96, 97, 98, 99],
      "LargestImagePixelValue": [37324, 38289, 8859, 3691, 8866, 3444, 8223, 3819, 9705, 3713, 7274, 3474, 9108, 4282, 8002, 4147, 8152, 32560, 3821, 9479, 3564, 7921, 3545, 8502, 3754, 7345, 3417, 8437, 4310, 8051, 3697, 8535, 3315, 33592, 7538, 3928, 7738, 3559, 7506, 3577, 7782, 3755, 7567, 3983, 8774, 3275, 8225, 4336, 8356, 35633, 3454, 7474, 4357, 7236, 4596, 8511, 4120, 9265, 3681, 9209, 3888, 8079, 3627, 8345, 4187, 34451, 7785, 3950, 8807, 3608, 7691, 3754, 8186, 3543, 7759, 4288, 8737, 3670, 7814, 3646, 7025, 35380, 3861, 8433, 3374, 8673, 4364, 8463, 3702, 7485, 3459, 8913, 3509, 9029, 4015, 8498, 4746, 7644, 3516],
      "SequenceName": [
 "ep_b5#1",
 "ep_b5#1",
 "ep_b1490#2",
 "ep_b2990#3",
 "ep_b1495#4",
 "ep_b3005#5",
 "ep_b1500#6",
 "ep_b2985#7",
 "ep_b1495#8",
 "ep_b3005#9",
 "ep_b1490#10",
 "ep_b2995#11",
 "ep_b1495#12",
 "ep_b2990#13",
 "ep_b1500#14",
 "ep_b2985#15",
 "ep_b1500#16",
 "ep_b5#17",
 "ep_b3005#18",
 "ep_b1490#19",
 "ep_b2995#20",
 "ep_b1495#21",
 "ep_b3000#22",
 "ep_b1495#23",
 "ep_b3000#24",
 "ep_b1490#25",
 "ep_b2985#26",
 "ep_b1505#27",
 "ep_b2990#28",
 "ep_b1495#29",
 "ep_b3000#30",
 "ep_b1490#31",
 "ep_b3000#32",
 "ep_b5#33",
 "ep_b1505#34",
 "ep_b3000#35",
 "ep_b1490#36",
 "ep_b2985#37",
 "ep_b1495#38",
 "ep_b2995#39",
 "ep_b1500#40",
 "ep_b2995#41",
 "ep_b1500#42",
 "ep_b2990#43",
 "ep_b1495#44",
 "ep_b3000#45",
 "ep_b1495#46",
 "ep_b3000#47",
 "ep_b1490#48",
 "ep_b5#49",
 "ep_b3000#50",
 "ep_b1495#51",
 "ep_b2995#52",
 "ep_b1505#53",
 "ep_b2995#54",
 "ep_b1495#55",
 "ep_b2990#56",
 "ep_b1490#57",
 "ep_b2995#58",
 "ep_b1500#59",
 "ep_b3000#60",
 "ep_b1500#61",
 "ep_b2985#62",
 "ep_b1500#63",
 "ep_b2990#64",
 "ep_b5#65",
 "ep_b1505#66",
 "ep_b3005#67",
 "ep_b1495#68",
 "ep_b3000#69",
 "ep_b1505#70",
 "ep_b3005#71",
 "ep_b1500#72",
 "ep_b3005#73",
 "ep_b1495#74",
 "ep_b2995#75",
 "ep_b1495#76",
 "ep_b2995#77",
 "ep_b1500#78",
 "ep_b3000#79",
 "ep_b1490#80",
 "ep_b5#81",
 "ep_b2990#82",
 "ep_b1500#83",
 "ep_b2985#84",
 "ep_b1495#85",
 "ep_b2995#86",
 "ep_b1495#87",
 "ep_b2990#88",
 "ep_b1490#89",
 "ep_b2985#90",
 "ep_b1500#91",
 "ep_b3000#92",
 "ep_b1495#93",
 "ep_b3005#94",
 "ep_b1495#95",
 "ep_b2990#96",
 "ep_b1500#97",
 "ep_b3000#98"
],
      "TriggerTime": [13295.0, 15630.0, 17965.0, 20297.5, 22632.5, 24965.0, 27300.0, 29635.0, 31967.5, 34302.5, 36635.0, 38970.0, 41305.0, 43637.5, 45972.5, 48305.0, 50640.0, 52975.0, 55307.5, 57642.5, 59975.0, 62310.0, 64645.0, 66977.5, 69312.5, 71645.0, 73980.0, 76315.0, 78647.5, 80982.5, 83315.0, 85650.0, 87985.0, 90317.5, 92652.5, 94985.0, 97320.0, 99655.0, 101987.5, 104322.5, 106655.0, 108990.0, 111325.0, 113657.5, 115992.5, 118325.0, 120660.0, 122995.0, 125327.5, 127662.5, 129995.0, 132330.0, 134665.0, 136997.5, 139332.5, 141665.0, 144000.0, 146335.0, 148667.5, 151002.5, 153335.0, 155670.0, 158005.0, 160337.5, 162672.5, 165005.0, 167340.0, 169675.0, 172007.5, 174342.5, 176675.0, 179010.0, 181345.0, 183677.5, 186012.5, 188345.0, 190680.0, 193015.0, 195347.5, 197682.5, 200015.0, 202350.0, 204685.0, 207017.5, 209352.5, 211685.0, 214020.0, 216355.0, 218687.5, 221022.5, 223355.0, 225690.0, 228025.0, 230357.5, 232692.5, 235025.0, 237360.0, 239695.0, 242027.5],
      "WindowCenter": [6886.0, 6907.0, 2497.0, 1423.0, 2558.0, 1418.0, 2531.0, 1379.0, 2493.0, 1392.0, 2454.0, 1417.0, 2592.0, 1443.0, 2492.0, 1425.0, 2450.0, 6798.0, 1427.0, 2535.0, 1398.0, 2506.0, 1391.0, 2464.0, 1449.0, 2465.0, 1380.0, 2525.0, 1425.0, 2518.0, 1410.0, 2507.0, 1393.0, 6811.0, 2482.0, 1393.0, 2438.0, 1395.0, 2490.0, 1449.0, 2493.0, 1394.0, 2463.0, 1447.0, 2466.0, 1370.0, 2455.0, 1438.0, 2506.0, 6859.0, 1397.0, 2525.0, 1468.0, 2454.0, 1437.0, 2499.0, 1489.0, 2564.0, 1409.0, 2492.0, 1391.0, 2466.0, 1382.0, 2556.0, 1457.0, 6835.0, 2467.0, 1431.0, 2515.0, 1413.0, 2481.0, 1412.0, 2519.0, 1377.0, 2452.0, 1428.0, 2507.0, 1434.0, 2527.0, 1384.0, 2465.0, 6837.0, 1441.0, 2460.0, 1379.0, 2522.0, 1416.0, 2440.0, 1427.0, 2448.0, 1383.0, 2491.0, 1418.0, 2590.0, 1425.0, 2498.0, 1447.0, 2478.0, 1433.0],
      "WindowWidth": [14833.0, 14873.0, 5974.0, 3713.0, 6096.0, 3712.0, 6035.0, 3623.0, 5957.0, 3642.0, 5894.0, 3717.0, 6166.0, 3770.0, 5967.0, 3724.0, 5883.0, 14650.0, 3727.0, 6050.0, 3676.0, 5992.0, 3667.0, 5902.0, 3788.0, 5913.0, 3620.0, 6035.0, 3727.0, 6016.0, 3689.0, 5995.0, 3669.0, 14677.0, 5955.0, 3654.0, 5859.0, 3650.0, 5959.0, 3792.0, 5972.0, 3655.0, 5904.0, 3780.0, 5913.0, 3605.0, 5883.0, 3753.0, 5993.0, 14761.0, 3662.0, 6035.0, 3815.0, 5896.0, 3747.0, 5969.0, 3869.0, 6107.0, 3685.0, 5961.0, 3644.0, 5918.0, 3628.0, 6089.0, 3801.0, 14713.0, 5921.0, 3744.0, 6007.0, 3708.0, 5947.0, 3698.0, 6018.0, 3606.0, 5888.0, 3739.0, 5995.0, 3758.0, 6046.0, 3643.0, 5914.0, 14709.0, 3757.0, 5896.0, 3617.0, 6022.0, 3694.0, 5856.0, 3731.0, 5878.0, 3631.0, 5959.0, 3722.0, 6161.0, 3725.0, 5966.0, 3763.0, 5943.0, 3749.0]
    },
    "slices": {}
  }
}