{
  "AcquisitionMatrixPE": 110,
  "AcquisitionNumber": 1,
  "AcquisitionTime": "16:56:50.940000",
  "BandwidthPerPixelPhaseEncode": 12.987,
  "BaseResolution": 110,
  "BodyPartExamined": "BRAIN",
  "ConsistencyInfo": "N4_VE11C_LATEST_20160120",
  "ConversionSoftware": "dcm2niix",
  "ConversionSoftwareVersion": "v1.0.20190902",
  "DerivedVendorReportedEchoSpacing": 0.000700001,
  "DeviceSerialNumber": "167006",
  "DiffusionScheme": "Monopolar",
  "DwellTime": 2.7e-06,
  "EchoTime": 0.0816,
  "EchoTrainLength": 83,
  "EffectiveEchoSpacing": 0.000700001,
  "FlipAngle": 78,
  "ImageComments": "Unaliased_MB3_PE3_LB_SENSE1",
  "ImageOrientationPatientDICOM": [1, 0, 0, 0, 0.930418, -0.366501],
  "ImageType": [
    "ORIGINAL",
    "PRIMARY",
    "DIFFUSION",
    "NONE",
    "MB",
    "ND",
    "MOSAIC"
],
  "ImagingFrequency": 123.259,
  "InPlanePhaseEncodingDirectionDICOM": "COL",
  "InstitutionAddress": "Chemin_Queen-Mary_4565_Montreal_District_CA_H3W_1W5",
  "InstitutionName": "IUGM",
  "InstitutionalDepartmentName": "Department",
  "MRAcquisitionType": "2D",
  "MagneticFieldStrength": 3,
  "Manufacturer": "Siemens",
  "ManufacturersModelName": "Prisma_fit",
  "Modality": "MR",
  "MultibandAccelerationFactor": 3,
  "PartialFourier": 0.75,
  "PatientPosition": "HFS",
  "PercentPhaseFOV": 100,
  "PhaseEncodingDirection": "j",
  "PhaseEncodingSteps": 83,
  "PhaseResolution": 1,
  "PixelBandwidth": 1685,
  "ProcedureStepDescription": "anat_generic",
  "ProtocolName": "dMRI_dir98_PA_test_cmrr",
  "PulseSequenceDetails": "%CustomerSeq%_cmrr_mbep2d_diff",
  "ReceiveCoilActiveElements": "HC1-6",
  "ReceiveCoilName": "HeadNeck_64",
  "ReconMatrixPE": 110,
  "RepetitionTime": 2.334,
  "SAR": 0.135314,
  "ScanOptions": "PFP_EXT",
  "ScanningSequence": "EP",
  "SequenceName": "ep_b5#1",
  "SequenceVariant": "SK_SS",
  "SeriesDescription": "dMRI_dir98_PA_test_cmrr",
  "SeriesNumber": 11,
  "ShimSetting": [613, -7262, -8834, 405, 18, -385, 93, 34],
  "SliceThickness": 2,
  "SliceTiming": [0, 1.2175, 0.1225, 1.34, 0.2425, 1.4625, 0.365, 1.5825, 0.4875, 1.705, 0.61, 1.8275, 0.73, 1.9475, 0.8525, 2.07, 0.975, 2.1925, 1.095, 0, 1.2175, 0.1225, 1.34, 0.2425, 1.4625, 0.365, 1.5825, 0.4875, 1.705, 0.61, 1.8275, 0.73, 1.9475, 0.8525, 2.07, 0.975, 2.1925, 1.095, 0, 1.2175, 0.1225, 1.34, 0.2425, 1.4625, 0.365, 1.5825, 0.4875, 1.705, 0.61, 1.8275, 0.73, 1.9475, 0.8525, 2.07, 0.975, 2.1925, 1.095],
  "SoftwareVersions": "syngo_MR_E11",
  "SpacingBetweenSlices": 2,
  "StationName": "MRC35049",
  "TotalReadoutTime": 0.0763001,
  "TxRefAmp": 234.253,
  "WipMemBlock": "3e08e9fc-ffb8-4bc1-827b-9dc2130354c8||Sequence: R016 ve11c/master r/e634e98; Dec 19 2017 11:11:25 by eja",
  "dcmmeta_affine": [
    [-2.0, 0.0, 0.0, 109.49686431884766],
    [0.0, 1.860835075378418, -0.7330024838447571, -73.00261688232422],
    [0.0, 0.7330024838447571, 1.860835075378418, -63.70365905761719],
    [0.0, 0.0, 0.0, 1.0]
],
  "dcmmeta_reorient_transform": [
    [0.0, -1.0, 0.0, 109.0],
    [1.0, 0.0, 0.0, 0.0],
    [0.0, 0.0, 1.0, 0.0],
    [0.0, 0.0, 0.0, 1.0]
],
  "dcmmeta_shape": [110, 110, 57, 99],
  "dcmmeta_slice_dim": 2,
  "dcmmeta_version": 0.6,
  "global": {
    "const": {
      "AcquisitionMatrix": [110, 0, 0, 110],
      "AngioFlag": "N",
      "BitsAllocated": 16,
      "BitsStored": 16,
      "BodyPartExamined": "BRAIN",
      "CardiacNumberOfImages": 1,
      "Columns": 880,
      "EchoNumbers": 1,
      "EchoTime": 81.6,
      "EchoTrainLength": 83,
      "FlipAngle": 78.0,
      "HighBit": 15,
      "ImageOrientationPatient": [1.0, 0.0, 0.0, 0.0, 0.9304175622862, -0.366501241184],
      "ImagePositionPatient": [-879.49686384201, -846.24993581466, 298.39956743112],
      "ImageType": [
        "ORIGINAL",
        "PRIMARY",
        "DIFFUSION",
        "NONE",
        "MB",
        "ND",
        "MOSAIC"
],
      "ImagedNucleus": "1H",
      "ImagingFrequency": 123.259353,
      "InPlanePhaseEncodingDirection": "COL",
      "MRAcquisitionType": "2D",
      "MagneticFieldStrength": 3.0,
      "Manufacturer": "SIEMENS",
      "ManufacturerModelName": "Prisma_fit",
      "Modality": "MR",
      "NominalInterval": 0,
      "NumberOfAverages": 1.0,
      "NumberOfPhaseEncodingSteps": 83,
      "PercentPhaseFieldOfView": 100.0,
      "PercentSampling": 100.0,
      "PerformedProcedureStepStartTime": "161243.609000",
      "PhotometricInterpretation": "MONOCHROME2",
      "PixelBandwidth": 1685.0,
      "PixelRepresentation": 0,
      "PixelSpacing": [2.0, 2.0],
      "ProtocolName": "dMRI_dir98_PA_test_cmrr",
      "RepetitionTime": 2334.0,
      "Rows": 880,
      "SAR": 0.13531447834536,
      "SamplesPerPixel": 1,
      "ScanOptions": [
        "PFP",
        "EXT"
],
      "ScanningSequence": "EP",
      "SequenceVariant": [
        "SK",
        "SS"
],
      "SeriesDescription": "dMRI_dir98_PA_test_cmrr",
      "SeriesNumber": 11,
      "SeriesTime": "165739.116000",
      "SliceLocation": -32.515453711427,
      "SliceThickness": 2.0,
      "SmallestImagePixelValue": 0,
      "SoftwareVersions": "syngo MR E11",
      "SpacingBetweenSlices": 2.0000000025463,
      "SpecificCharacterSet": "ISO_IR 100",
      "StudyID": "1",
      "StudyTime": "161243.475000",
      "TransmitCoilName": "Body",
      "VariableFlipAngleFlag": "N",
      "WindowCenterWidthExplanation": "Algo1",
      "dBdt": 0.0},
    "slices": {}
  },
  "time": {
    "samples": {
      "AcquisitionNumber": [1, 2, 3, 4, 5, 6, 7, 8, 9, 10, 11, 12, 13, 14, 15, 16, 17, 18, 19, 20, 21, 22, 23, 24, 25, 26, 27, 28, 29, 30, 31, 32, 33, 34, 35, 36, 37, 38, 39, 40, 41, 42, 43, 44, 45, 46, 47, 48, 49, 50, 51, 52, 53, 54, 55, 56, 57, 58, 59, 60, 61, 62, 63, 64, 65, 66, 67, 68, 69, 70, 71, 72, 73, 74, 75, 76, 77, 78, 79, 80, 81, 82, 83, 84, 85, 86, 87, 88, 89, 90, 91, 92, 93, 94, 95, 96, 97, 98, 99],
      "AcquisitionTime": ["165650.940000", "165653.275000", "165655.607500", "165657.942500", "165700.275000", "165702.610000", "165704.945000", "165707.277500", "165709.612500", "165711.945000", "165714.280000", "165716.615000", "165718.947500", "165721.282500", "165723.615000", "165725.950000", "165728.285000", "165730.617500", "165732.952500", "165735.285000", "165737.620000", "165739.955000", "165742.287500", "165744.622500", "165746.955000", "165749.290000", "165751.625000", "165753.957500", "165756.292500", "165758.625000", "165800.960000", "165803.295000", "165805.627500", "165807.962500", "165810.295000", "165812.630000", "165814.965000", "165817.297500", "165819.632500", "165821.965000", "165824.300000", "165826.635000", "165828.967500", "165831.302500", "165833.635000", "165835.970000", "165838.305000", "165840.637500", "165842.972500", "165845.305000", "165847.640000", "165849.975000", "165852.307500", "165854.642500", "165856.975000", "165859.310000", "165901.645000", "165903.977500", "165906.312500", "165908.645000", "165910.980000", "165913.315000", "165915.647500", "165917.982500", "165920.315000", "165922.650000", "165924.985000", "165927.317500", "165929.652500", "165931.985000", "165934.320000", "165936.655000", "165938.987500", "165941.322500", "165943.655000", "165945.990000", "165948.325000", "165950.657500", "165952.992500", "165955.325000", "165957.660000", "165959.995000", "170002.327500", "170004.662500", "170006.995000", "170009.330000", "170011.665000", "170013.997500", "170016.332500", "170018.665000", "170021.000000", "170023.335000", "170025.667500", "170028.002500", "170030.335000", "170032.670000", "170035.005000", "170037.337500", "170039.672500"],
      "ContentTime": ["165739.119000", "165739.123000", "165739.126000", "165739.138000", "165739.141000", "165739.144000", "165739.149000", "165739.153000", "165739.156000", "165739.159000", "165739.163000", "165739.166000", "165739.173000", "165739.176000", "165739.179000", "165739.183000", "165739.186000", "165739.189000", "165739.192000", "165739.196000", "165839.091000", "165839.095000", "165839.098000", "165839.101000", "165839.105000", "165839.108000", "165839.111000", "165839.114000", "165839.117000", "165839.120000", "165839.124000", "165839.127000", "165839.130000", "165839.134000", "165839.137000", "165839.140000", "165839.143000", "165839.146000", "165839.150000", "165839.153000", "165839.156000", "165839.159000", "165839.163000", "165839.166000", "165839.169000", "165839.184000", "165939.091000", "165939.095000", "165939.098000", "165939.101000", "165939.104000", "165939.108000", "165939.111000", "165939.114000", "165939.124000", "165939.127000", "165939.131000", "165939.134000", "165939.137000", "165939.140000", "165939.144000", "165939.147000", "165939.150000", "165939.153000", "165939.157000", "165939.160000", "165939.163000", "165939.166000", "165939.170000", "165939.173000", "165939.176000", "170039.091000", "170039.095000", "170039.098000", "170039.101000", "170039.104000", "170039.108000", "170039.111000", "170039.114000", "170039.117000", "170039.134000", "170039.137000", "170039.140000", "170039.143000", "170039.147000", "170039.150000", "170039.153000", "170039.156000", "170039.160000", "170039.163000", "170039.166000", "170039.169000", "170039.173000", "170039.176000", "170039.179000", "170039.182000", "170039.186000", "170044.608000", "170044.617000"],
      "InstanceCreationTime": ["165739.119000", "165739.123000", "165739.126000", "165739.138000", "165739.141000", "165739.144000", "165739.149000", "165739.153000", "165739.156000", "165739.159000", "165739.163000", "165739.166000", "165739.173000", "165739.176000", "165739.179000", "165739.183000", "165739.186000", "165739.189000", "165739.192000", "165739.196000", "165839.091000", "165839.095000", "165839.098000", "165839.101000", "165839.105000", "165839.108000", "165839.111000", "165839.114000", "165839.117000", "165839.120000", "165839.124000", "165839.127000", "165839.130000", "165839.134000", "165839.137000", "165839.140000", "165839.143000", "165839.146000", "165839.150000", "165839.153000", "165839.156000", "165839.159000", "165839.163000", "165839.166000", "165839.169000", "165839.184000", "165939.091000", "165939.095000", "165939.098000", "165939.101000", "165939.104000", "165939.108000", "165939.111000", "165939.114000", "165939.124000", "165939.127000", "165939.131000", "165939.134000", "165939.137000", "165939.140000", "165939.144000", "165939.147000", "165939.150000", "165939.153000", "165939.157000", "165939.160000", "165939.163000", "165939.166000", "165939.170000", "165939.173000", "165939.176000", "170039.091000", "170039.095000", "170039.098000", "170039.101000", "170039.104000", "170039.108000", "170039.111000", "170039.114000", "170039.117000", "170039.134000", "170039.137000", "170039.140000", "170039.143000", "170039.147000", "170039.150000", "170039.153000", "170039.156000", "170039.160000", "170039.163000", "170039.166000", "170039.169000", "170039.173000", "170039.176000", "170039.179000", "170039.182000", "170039.186000", "170044.608000", "170044.617000"],
      "InstanceNumber": [1, 2, 3, 4, 5, 6, 7, 8, 9, 10, 11, 12, 13, 14, 15, 16, 17, 18, 19, 20, 21, 22, 23, 24, 25, 26, 27, 28, 29, 30, 31, 32, 33, 34, 35, 36, 37, 38, 39, 40, 41, 42, 43, 44, 45, 46, 47, 48, 49, 50, 51, 52, 53, 54, 55, 56, 57, 58, 59, 60, 61, 62, 63, 64, 65, 66, 67, 68, 69, 70, 71, 72, 73, 74, 75, 76, 77, 78, 79, 80, 81, 82, 83, 84, 85, 86, 87, 88, 89, 90, 91, 92, 93, 94, 95, 96, 97, 98, 99],
      "LargestImagePixelValue": [42924, 50313, 13903, 4851, 11700, 7256, 12897, 6085, 11917, 6331, 15156, 6084, 13376, 5442, 12136, 6329, 13440, 46363, 6835, 13107, 5109, 12724, 5507, 11782, 5951, 13697, 5886, 15197, 4839, 11655, 5666, 11971, 6625, 43589, 14856, 5154, 12395, 7193, 12496, 5108, 13747, 4980, 13808, 6704, 12240, 5829, 12193, 7049, 14298, 42341, 6902, 13300, 5794, 14033, 4851, 12045, 5806, 13445, 5193, 11525, 6009, 13201, 6566, 12360, 5064, 42192, 14583, 6296, 11617, 5220, 14523, 6522, 11750, 6247, 14513, 4891, 12909, 5593, 13141, 5334, 12841, 45914, 6914, 12330, 6024, 13342, 5324, 11600, 5220, 14511, 6085, 11682, 5639, 12340, 6770, 12433, 5591, 11688, 6877],
      "SequenceName": [
 "ep_b5#1",
 "ep_b5#1",
 "ep_b1490#2",
 "ep_b2990#3",
 "ep_b1495#4",
 "ep_b3005#5",
 "ep_b1500#6",
 "ep_b2985#7",
 "ep_b1495#8",
 "ep_b3005#9",
 "ep_b1490#10",
 "ep_b2995#11",
 "ep_b1495#12",
 "ep_b2990#13",
 "ep_b1500#14",
 "ep_b2985#15",
 "ep_b1500#16",
 "ep_b5#17",
 "ep_b3005#18",
 "ep_b1490#19",
 "ep_b2995#20",
 "ep_b1495#21",
 "ep_b3000#22",
 "ep_b1495#23",
 "ep_b3000#24",
 "ep_b1490#25",
 "ep_b2985#26",
 "ep_b1505#27",
 "ep_b2990#28",
 "ep_b1495#29",
 "ep_b3000#30",
 "ep_b1490#31",
 "ep_b3000#32",
 "ep_b5#33",
 "ep_b1505#34",
 "ep_b3000#35",
 "ep_b1490#36",
 "ep_b2985#37",
 "ep_b1495#38",
 "ep_b2995#39",
 "ep_b1500#40",
 "ep_b2995#41",
 "ep_b1500#42",
 "ep_b2990#43",
 "ep_b1495#44",
 "ep_b3000#45",
 "ep_b1495#46",
 "ep_b3000#47",
 "ep_b1490#48",
 "ep_b5#49",
 "ep_b3000#50",
 "ep_b1495#51",
 "ep_b2990#52",
 "ep_b1505#53",
 "ep_b2995#54",
 "ep_b1495#55",
 "ep_b2990#56",
 "ep_b1490#57",
 "ep_b2995#58",
 "ep_b1500#59",
 "ep_b3000#60",
 "ep_b1500#61",
 "ep_b2985#62",
 "ep_b1500#63",
 "ep_b2990#64",
 "ep_b5#65",
 "ep_b1505#66",
 "ep_b3005#67",
 "ep_b1495#68",
 "ep_b3000#69",
 "ep_b1505#70",
 "ep_b3005#71",
 "ep_b1500#72",
 "ep_b3005#73",
 "ep_b1495#74",
 "ep_b2995#75",
 "ep_b1495#76",
 "ep_b2995#77",
 "ep_b1500#78",
 "ep_b3000#79",
 "ep_b1490#80",
 "ep_b5#81",
 "ep_b2990#82",
 "ep_b1500#83",
 "ep_b2985#84",
 "ep_b1495#85",
 "ep_b2995#86",
 "ep_b1495#87",
 "ep_b2990#88",
 "ep_b1490#89",
 "ep_b2985#90",
 "ep_b1500#91",
 "ep_b3000#92",
 "ep_b1495#93",
 "ep_b3005#94",
 "ep_b1495#95",
 "ep_b2990#96",
 "ep_b1500#97",
 "ep_b3000#98"
],
      "TriggerTime": [13297.5, 15630.0, 17965.0, 20300.0, 22632.5, 24967.5, 27300.0, 29635.0, 31970.0, 34302.5, 36637.5, 38970.0, 41305.0, 43640.0, 45972.5, 48307.5, 50640.0, 52975.0, 55310.0, 57642.5, 59977.5, 62310.0, 64645.0, 66980.0, 69312.5, 71647.5, 73980.0, 76315.0, 78650.0, 80982.5, 83317.5, 85650.0, 87985.0, 90320.0, 92652.5, 94987.5, 97320.0, 99655.0, 101990.0, 104322.5, 106657.5, 108990.0, 111325.0, 113660.0, 115992.5, 118327.5, 120660.0, 122995.0, 125330.0, 127662.5, 129997.5, 132330.0, 134665.0, 137000.0, 139332.5, 141667.5, 144000.0, 146335.0, 148670.0, 151002.5, 153337.5, 155670.0, 158005.0, 160340.0, 162672.5, 165007.5, 167340.0, 169675.0, 172010.0, 174342.5, 176677.5, 179010.0, 181345.0, 183680.0, 186012.5, 188347.5, 190680.0, 193015.0, 195350.0, 197682.5, 200017.5, 202350.0, 204685.0, 207020.0, 209352.5, 211687.5, 214020.0, 216355.0, 218690.0, 221022.5, 223357.5, 225690.0, 228025.0, 230360.0, 232692.5, 235027.5, 237360.0, 239695.0, 242030.0],
      "WindowCenter": [6907.0, 6969.0, 2587.0, 1465.0, 2547.0, 1560.0, 2565.0, 1521.0, 2563.0, 1487.0, 2589.0, 1548.0, 2614.0, 1518.0, 2551.0, 1525.0, 2530.0, 6860.0, 1536.0, 2604.0, 1476.0, 2603.0, 1498.0, 2559.0, 1550.0, 2567.0, 1478.0, 2571.0, 1478.0, 2543.0, 1475.0, 2547.0, 1547.0, 6804.0, 2582.0, 1464.0, 2587.0, 1532.0, 2570.0, 1496.0, 2613.0, 1482.0, 2539.0, 1562.0, 2584.0, 1469.0, 2588.0, 1561.0, 2577.0, 6779.0, 1548.0, 2621.0, 1505.0, 2555.0, 1477.0, 2546.0, 1521.0, 2604.0, 1450.0, 2545.0, 1479.0, 2543.0, 1530.0, 2580.0, 1483.0, 6798.0, 2576.0, 1539.0, 2548.0, 1462.0, 2597.0, 1539.0, 2555.0, 1483.0, 2571.0, 1459.0, 2588.0, 1525.0, 2585.0, 1460.0, 2569.0, 6806.0, 1560.0, 2534.0, 1489.0, 2576.0, 1516.0, 2544.0, 1493.0, 2556.0, 1508.0, 2544.0, 1523.0, 2580.0, 1530.0, 2543.0, 1502.0, 2508.0, 1545.0],
      "WindowWidth": [15081.0, 15170.0, 6198.0, 3817.0, 6119.0, 4007.0, 6135.0, 3942.0, 6156.0, 3854.0, 6209.0, 3991.0, 6244.0, 3950.0, 6114.0, 3950.0, 6083.0, 14931.0, 3963.0, 6233.0, 3831.0, 6222.0, 3904.0, 6145.0, 3997.0, 6151.0, 3841.0, 6169.0, 3870.0, 6112.0, 3834.0, 6124.0, 3984.0, 14832.0, 6188.0, 3816.0, 6198.0, 3952.0, 6157.0, 3887.0, 6253.0, 3859.0, 6091.0, 4018.0, 6192.0, 3808.0, 6205.0, 4015.0, 6183.0, 14783.0, 3988.0, 6256.0, 3901.0, 6134.0, 3867.0, 6115.0, 3935.0, 6230.0, 3783.0, 6116.0, 3846.0, 6106.0, 3945.0, 6162.0, 3866.0, 14808.0, 6184.0, 3978.0, 6126.0, 3802.0, 6221.0, 3980.0, 6123.0, 3842.0, 6164.0, 3822.0, 6197.0, 3951.0, 6194.0, 3800.0, 6153.0, 14804.0, 4005.0, 6096.0, 3857.0, 6176.0, 3943.0, 6118.0, 3881.0, 6136.0, 3906.0, 6116.0, 3938.0, 6174.0, 3944.0, 6098.0, 3913.0, 6047.0, 3982.0]
    },
    "slices": {}
  }
}