{
  "AcquisitionMatrixPE": 110,
  "AcquisitionNumber": 1,
  "AcquisitionTime": "17:03:10.192500",
  "BandwidthPerPixelPhaseEncode": 12.987,
  "BaseResolution": 110,
  "BodyPartExamined": "BRAIN",
  "CoilCombinationMethod": "Sum of Squares",
  "ConsistencyInfo": "N4_VE11C_LATEST_20160120",
  "ConversionSoftware": "dcm2niix",
  "ConversionSoftwareVersion": "v1.0.20211006",
  "DerivedVendorReportedEchoSpacing": 0.000700001,
  "DeviceSerialNumber": "167006",
  "DiffusionScheme": "Monopolar",
  "DwellTime": 2.7e-06,
  "EchoTime": 0.0816,
  "EchoTrainLength": 83,
  "EffectiveEchoSpacing": 0.000700001,
  "FlipAngle": 78,
  "HeudiconvVersion": "0.5.3.post569+g418601f",
  "ImageComments": "Unaliased MB3/PE3/LB SENSE1",
  "ImageOrientationPatientDICOM": [1, 0, 0, 0, 0.948324, -0.317305],
  "ImageOrientationText": "Tra>Cor(-18.5)",
  "ImageType": [
    "ORIGINAL",
    "PRIMARY",
    "DIFFUSION",
    "NONE",
    "MB",
    "ND",
    "MOSAIC"
],
  "ImagingFrequency": 123.259,
  "InPlanePhaseEncodingDirectionDICOM": "COL",
  "InstitutionAddress": "Chemin Queen-Mary 4565,Montreal,District,CA,H3W 1W5",
  "InstitutionName": "IUGM",
  "InstitutionalDepartmentName": "Department",
  "MRAcquisitionType": "2D",
  "MagneticFieldStrength": 3,
  "Manufacturer": "Siemens",
  "ManufacturersModelName": "Prisma_fit",
  "MatrixCoilMode": "SENSE",
  "Modality": "MR",
  "MultibandAccelerationFactor": 3,
  "PartialFourier": 0.75,
  "PatientPosition": "HFS",
  "PercentPhaseFOV": 100,
  "PercentSampling": 100,
  "PhaseEncodingDirection": "j-",
  "PhaseEncodingSteps": 83,
  "PhaseResolution": 1,
  "PixelBandwidth": 1685,
  "ProcedureStepDescription": "anat^generic",
  "ProtocolName": "dMRI_dir98_AP_test_cmrr",
  "PulseSequenceDetails": "%CustomerSeq%\\cmrr_mbep2d_diff",
  "ReceiveCoilActiveElements": "HC1-6",
  "ReceiveCoilName": "HeadNeck_64",
  "ReconMatrixPE": 110,
  "RepetitionTime": 2.334,
  "SAR": 0.11747,
  "ScanOptions": "PFP\\EXT",
  "ScanningSequence": "EP",
  "SequenceName": "ep_b5#1",
  "SequenceVariant": "SK\\SS",
  "SeriesDescription": "dMRI_dir98_AP_test_cmrr",
  "SeriesNumber": 7,
  "ShimSetting": [608, -7264, -8838, 447, -6, -324, 93, -2],
  "SliceThickness": 2,
  "SliceTiming": [0, 1.2175, 0.12, 1.3375, 0.2425, 1.46, 0.365, 1.5825, 0.485, 1.705, 0.6075, 1.825, 0.73, 1.9475, 0.8525, 2.07, 0.9725, 2.19, 1.095, 0, 1.2175, 0.12, 1.3375, 0.2425, 1.46, 0.365, 1.5825, 0.485, 1.705, 0.6075, 1.825, 0.73, 1.9475, 0.8525, 2.07, 0.9725, 2.19, 1.095, 0, 1.2175, 0.12, 1.3375, 0.2425, 1.46, 0.365, 1.5825, 0.485, 1.705, 0.6075, 1.825, 0.73, 1.9475, 0.8525, 2.07, 0.9725, 2.19, 1.095],
  "SoftwareVersions": "syngo MR E11",
  "SpacingBetweenSlices": 2,
  "StationName": "MRC35049",
  "TotalReadoutTime": 0.0763001,
  "TxRefAmp": 226.367,
  "WipMemBlock": "0b0aac22-6c30-4acf-be20-c5819bbceb5e||Sequence: R016 ve11c/master r/e634e98; Dec 19 2017 11:11:25 by eja",
  "dcmmeta_affine": [
    [-2.0, 0.0, 0.0, 109.49686431884766],
    [0.0, 1.896647334098816, -0.6346093416213989, -77.69148254394531],
    [0.0, 0.6346093416213989, 1.896647334098816, -55.99557876586914],
    [0.0, 0.0, 0.0, 1.0]
],
  "dcmmeta_reorient_transform": [
    [0.0, -1.0, 0.0, 109.0],
    [1.0, 0.0, 0.0, 0.0],
    [0.0, 0.0, 1.0, 0.0],
    [0.0, 0.0, 0.0, 1.0]
],
  "dcmmeta_shape": [110, 110, 57, 99],
  "dcmmeta_slice_dim": 2,
  "dcmmeta_version": 0.6,
  "global": {
    "const": {
      "AcquisitionMatrix": [110, 0, 0, 110],
      "AngioFlag": "N",
      "BitsAllocated": 16,
      "BitsStored": 16,
      "BodyPartExamined": "BRAIN",
      "CardiacNumberOfImages": 1,
      "Columns": 880,
      "EchoNumbers": 1,
      "EchoTime": 81.6,
      "EchoTrainLength": 83,
      "FlipAngle": 78.0,
      "HighBit": 15,
      "ImageOrientationPatient": [1.0, 0.0, 0.0, 0.0, 0.9483236491687, -0.3173046744493],
      "ImagePositionPatient": [-879.49686384201, -859.2522854811, 257.50143848181],
      "ImageType": [
        "ORIGINAL",
        "PRIMARY",
        "DIFFUSION",
        "NONE",
        "MB",
        "ND",
        "MOSAIC"
],
      "ImagedNucleus": "1H",
      "ImagingFrequency": 123.258926,
      "InPlanePhaseEncodingDirection": "COL",
      "MRAcquisitionType": "2D",
      "MagneticFieldStrength": 3.0,
      "Manufacturer": "SIEMENS",
      "ManufacturerModelName": "Prisma_fit",
      "Modality": "MR",
      "NominalInterval": 0,
      "NumberOfAverages": 1.0,
      "NumberOfPhaseEncodingSteps": 83,
      "PercentPhaseFieldOfView": 100.0,
      "PercentSampling": 100.0,
      "PerformedProcedureStepStartTime": "163813.580000",
      "PhotometricInterpretation": "MONOCHROME2",
      "PixelBandwidth": 1685.0,
      "PixelRepresentation": 0,
      "PixelSpacing": [2.0, 2.0],
      "ProtocolName": "dMRI_dir98_AP_test_cmrr",
      "RepetitionTime": 2334.0,
      "Rows": 880,
      "SAR": 0.1174696700727,
      "SamplesPerPixel": 1,
      "ScanOptions": [
        "PFP",
        "EXT"
],
      "ScanningSequence": "EP",
      "SequenceVariant": [
        "SK",
        "SS"
],
      "SeriesDescription": "dMRI_dir98_AP_test_cmrr",
      "SeriesNumber": 7,
      "SeriesTime": "170408.316000",
      "SliceLocation": -28.450062907134,
      "SliceThickness": 2.0,
      "SmallestImagePixelValue": 0,
      "SoftwareVersions": "syngo MR E11",
      "SpacingBetweenSlices": 1.9999999777511,
      "SpecificCharacterSet": "ISO_IR 100",
      "StudyID": "1",
      "StudyTime": "163813.502000",
      "TransmitCoilName": "Body",
      "VariableFlipAngleFlag": "N",
      "WindowCenterWidthExplanation": "Algo1",
      "dBdt": 0.0},
    "slices": {}
  },
  "time": {
    "samples": {
      "AcquisitionNumber": [1, 2, 3, 4, 5, 6, 7, 8, 9, 10, 11, 12, 13, 14, 15, 16, 17, 18, 19, 20, 21, 22, 23, 24, 25, 26, 27, 28, 29, 30, 31, 32, 33, 34, 35, 36, 37, 38, 39, 40, 41, 42, 43, 44, 45, 46, 47, 48, 49, 50, 51, 52, 53, 54, 55, 56, 57, 58, 59, 60, 61, 62, 63, 64, 65, 66, 67, 68, 69, 70, 71, 72, 73, 74, 75, 76, 77, 78, 79, 80, 81, 82, 83, 84, 85, 86, 87, 88, 89, 90, 91, 92, 93, 94, 95, 96, 97, 98, 99],
      "AcquisitionTime": ["170310.192500", "170312.525000", "170314.860000", "170317.192500", "170319.527500", "170321.862500", "170324.195000", "170326.530000", "170328.862500", "170331.197500", "170333.532500", "170335.865000", "170338.200000", "170340.532500", "170342.867500", "170345.202500", "170347.535000", "170349.870000", "170352.202500", "170354.537500", "170356.872500", "170359.205000", "170401.540000", "170403.872500", "170406.207500", "170408.542500", "170410.875000", "170413.210000", "170415.542500", "170417.877500", "170420.212500", "170422.545000", "170424.880000", "170427.212500", "170429.547500", "170431.882500", "170434.215000", "170436.550000", "170438.882500", "170441.217500", "170443.552500", "170445.885000", "170448.220000", "170450.552500", "170452.887500", "170455.222500", "170457.555000", "170459.890000", "170502.222500", "170504.557500", "170506.892500", "170509.225000", "170511.560000", "170513.892500", "170516.227500", "170518.562500", "170520.895000", "170523.230000", "170525.562500", "170527.897500", "170530.232500", "170532.565000", "170534.900000", "170537.232500", "170539.567500", "170541.902500", "170544.235000", "170546.570000", "170548.902500", "170551.237500", "170553.572500", "170555.905000", "170558.240000", "170600.572500", "170602.907500", "170605.242500", "170607.575000", "170609.910000", "170612.242500", "170614.577500", "170616.912500", "170619.245000", "170621.580000", "170623.912500", "170626.247500", "170628.582500", "170630.915000", "170633.250000", "170635.582500", "170637.917500", "170640.252500", "170642.585000", "170644.920000", "170647.252500", "170649.587500", "170651.922500", "170654.255000", "170656.590000", "170658.922500"],
      "ContentTime": ["170408.319000", "170408.322000", "170408.325000", "170408.328000", "170408.331000", "170408.335000", "170408.346000", "170408.349000", "170408.352000", "170408.355000", "170408.358000", "170408.361000", "170408.365000", "170408.368000", "170408.371000", "170408.374000", "170408.377000", "170408.380000", "170408.383000", "170408.386000", "170408.389000", "170408.392000", "170408.395000", "170408.399000", "170508.285000", "170508.289000", "170508.292000", "170508.295000", "170508.298000", "170508.301000", "170508.304000", "170508.307000", "170508.310000", "170508.314000", "170508.317000", "170508.320000", "170508.323000", "170508.326000", "170508.329000", "170508.354000", "170508.357000", "170508.360000", "170508.363000", "170508.366000", "170508.370000", "170508.373000", "170508.376000", "170508.379000", "170508.382000", "170508.385000", "170608.285000", "170608.289000", "170608.292000", "170608.295000", "170608.298000", "170608.301000", "170608.304000", "170608.307000", "170608.311000", "170608.314000", "170608.324000", "170608.327000", "170608.330000", "170608.334000", "170608.337000", "170608.340000", "170608.343000", "170608.346000", "170608.349000", "170608.352000", "170608.356000", "170608.359000", "170608.362000", "170608.365000", "170608.368000", "170608.371000", "170703.523000", "170703.526000", "170703.530000", "170703.533000", "170703.545000", "170703.549000", "170703.552000", "170703.555000", "170703.570000", "170703.573000", "170703.576000", "170703.580000", "170703.583000", "170703.586000", "170703.589000", "170703.592000", "170703.596000", "170703.599000", "170703.602000", "170703.605000", "170703.609000", "170703.612000", "170703.615000"],
      "InstanceCreationTime": ["170408.319000", "170408.322000", "170408.325000", "170408.328000", "170408.331000", "170408.335000", "170408.346000", "170408.349000", "170408.352000", "170408.355000", "170408.358000", "170408.361000", "170408.365000", "170408.368000", "170408.371000", "170408.374000", "170408.377000", "170408.380000", "170408.383000", "170408.386000", "170408.389000", "170408.392000", "170408.395000", "170408.399000", "170508.285000", "170508.289000", "170508.292000", "170508.295000", "170508.298000", "170508.301000", "170508.304000", "170508.307000", "170508.310000", "170508.314000", "170508.317000", "170508.320000", "170508.323000", "170508.326000", "170508.329000", "170508.354000", "170508.357000", "170508.360000", "170508.363000", "170508.366000", "170508.370000", "170508.373000", "170508.376000", "170508.379000", "170508.382000", "170508.385000", "170608.285000", "170608.289000", "170608.292000", "170608.295000", "170608.298000", "170608.301000", "170608.304000", "170608.307000", "170608.311000", "170608.314000", "170608.324000", "170608.327000", "170608.330000", "170608.334000", "170608.337000", "170608.340000", "170608.343000", "170608.346000", "170608.349000", "170608.352000", "170608.356000", "170608.359000", "170608.362000", "170608.365000", "170608.368000", "170608.371000", "170703.523000", "170703.526000", "170703.530000", "170703.533000", "170703.545000", "170703.549000", "170703.552000", "170703.555000", "170703.570000", "170703.573000", "170703.576000", "170703.580000", "170703.583000", "170703.586000", "170703.589000", "170703.592000", "170703.596000", "170703.599000", "170703.602000", "170703.605000", "170703.609000", "170703.612000", "170703.615000"],
      "InstanceNumber": [1, 2, 3, 4, 5, 6, 7, 8, 9, 10, 11, 12, 13, 14, 15, 16, 17, 18, 19, 20, 21, 22, 23, 24, 25, 26, 27, 28, 29, 30, 31, 32, 33, 34, 35, 36, 37, 38, 39, 40, 41, 42, 43, 44, 45, 46, 47, 48, 49, 50, 51, 52, 53, 54, 55, 56, 57, 58, 59, 60, 61, 62, 63, 64, 65, 66, 67, 68, 69, 70, 71, 72, 73, 74, 75, 76, 77, 78, 79, 80, 81, 82, 83, 84, 85, 86, 87, 88, 89, 90, 91, 92, 93, 94, 95, 96, 97, 98, 99],
      "LargestImagePixelValue": [39965, 40731, 9385, 3775, 8186, 4484, 8299, 5001, 8772, 4346, 8897, 3590, 9063, 4566, 8757, 4136, 7835, 40606, 4510, 8728, 3626, 8018, 3859, 8569, 4356, 8819, 3764, 9107, 3998, 8277, 4859, 7830, 3821, 35723, 9365, 3782, 8683, 4632, 8529, 3671, 8172, 3692, 8496, 4609, 8598, 4028, 8094, 4922, 8185, 38944, 4675, 8484, 3769, 8848, 4084, 8222, 4103, 9040, 4707, 8240, 4372, 8625, 4649, 8642, 3504, 36570, 8931, 4228, 8363, 3769, 8523, 3832, 8164, 4059, 8022, 4342, 8704, 4188, 9331, 4374, 8472, 38658, 5098, 8148, 3705, 9184, 4471, 8607, 3888, 9143, 4652, 8443, 4277, 8558, 4894, 8678, 4726, 9072, 4468],
      "SequenceName": [
 "ep_b5#1",
 "ep_b5#1",
 "ep_b1490#2",
 "ep_b2990#3",
 "ep_b1495#4",
 "ep_b3005#5",
 "ep_b1500#6",
 "ep_b2985#7",
 "ep_b1495#8",
 "ep_b3005#9",
 "ep_b1490#10",
 "ep_b2995#11",
 "ep_b1490#12",
 "ep_b2990#13",
 "ep_b1500#14",
 "ep_b2985#15",
 "ep_b1500#16",
 "ep_b5#17",
 "ep_b3005#18",
 "ep_b1490#19",
 "ep_b2995#20",
 "ep_b1500#21",
 "ep_b3000#22",
 "ep_b1495#23",
 "ep_b3000#24",
 "ep_b1490#25",
 "ep_b2985#26",
 "ep_b1505#27",
 "ep_b2990#28",
 "ep_b1500#29",
 "ep_b3000#30",
 "ep_b1490#31",
 "ep_b3000#32",
 "ep_b5#33",
 "ep_b1505#34",
 "ep_b3000#35",
 "ep_b1495#36",
 "ep_b2985#37",
 "ep_b1495#38",
 "ep_b2995#39",
 "ep_b1500#40",
 "ep_b2995#41",
 "ep_b1500#42",
 "ep_b2990#43",
 "ep_b1495#44",
 "ep_b3000#45",
 "ep_b1495#46",
 "ep_b3000#47",
 "ep_b1490#48",
 "ep_b5#49",
 "ep_b3000#50",
 "ep_b1500#51",
 "ep_b2990#52",
 "ep_b1505#53",
 "ep_b2995#54",
 "ep_b1495#55",
 "ep_b2990#56",
 "ep_b1490#57",
 "ep_b2995#58",
 "ep_b1500#59",
 "ep_b3000#60",
 "ep_b1500#61",
 "ep_b2985#62",
 "ep_b1500#63",
 "ep_b2990#64",
 "ep_b5#65",
 "ep_b1505#66",
 "ep_b3005#67",
 "ep_b1495#68",
 "ep_b3000#69",
 "ep_b1505#70",
 "ep_b3005#71",
 "ep_b1500#72",
 "ep_b3005#73",
 "ep_b1495#74",
 "ep_b2995#75",
 "ep_b1495#76",
 "ep_b2995#77",
 "ep_b1500#78",
 "ep_b3000#79",
 "ep_b1490#80",
 "ep_b5#81",
 "ep_b2990#82",
 "ep_b1500#83",
 "ep_b2985#84",
 "ep_b1495#85",
 "ep_b2995#86",
 "ep_b1495#87",
 "ep_b2995#88",
 "ep_b1490#89",
 "ep_b2985#90",
 "ep_b1500#91",
 "ep_b3000#92",
 "ep_b1495#93",
 "ep_b3005#94",
 "ep_b1495#95",
 "ep_b2990#96",
 "ep_b1500#97",
 "ep_b3000#98"
],
      "TriggerTime": [13295.0, 15630.0, 17965.0, 20297.5, 22632.5, 24965.0, 27300.0, 29635.0, 31967.5, 34302.5, 36635.0, 38970.0, 41305.0, 43637.5, 45972.5, 48305.0, 50640.0, 52975.0, 55307.5, 57642.5, 59975.0, 62310.0, 64645.0, 66977.5, 69312.5, 71645.0, 73980.0, 76315.0, 78647.5, 80982.5, 83315.0, 85650.0, 87985.0, 90317.5, 92652.5, 94985.0, 97320.0, 99655.0, 101987.5, 104322.5, 106655.0, 108990.0, 111325.0, 113657.5, 115992.5, 118325.0, 120660.0, 122995.0, 125327.5, 127662.5, 129995.0, 132330.0, 134665.0, 136997.5, 139332.5, 141665.0, 144000.0, 146335.0, 148667.5, 151002.5, 153335.0, 155670.0, 158005.0, 160337.5, 162672.5, 165005.0, 167340.0, 169675.0, 172007.5, 174342.5, 176675.0, 179010.0, 181345.0, 183677.5, 186012.5, 188345.0, 190680.0, 193015.0, 195347.5, 197682.5, 200015.0, 202350.0, 204685.0, 207017.5, 209352.5, 211685.0, 214020.0, 216355.0, 218687.5, 221022.5, 223355.0, 225690.0, 228025.0, 230357.5, 232692.5, 235025.0, 237360.0, 239695.0, 242027.5],
      "WindowCenter": [6790.0, 6772.0, 2474.0, 1431.0, 2497.0, 1457.0, 2487.0, 1453.0, 2453.0, 1424.0, 2460.0, 1415.0, 2536.0, 1465.0, 2473.0, 1437.0, 2422.0, 6698.0, 1472.0, 2492.0, 1407.0, 2475.0, 1412.0, 2449.0, 1481.0, 2468.0, 1403.0, 2501.0, 1430.0, 2507.0, 1456.0, 2469.0, 1422.0, 6673.0, 2502.0, 1403.0, 2447.0, 1441.0, 2482.0, 1445.0, 2478.0, 1405.0, 2458.0, 1474.0, 2465.0, 1427.0, 2437.0, 1480.0, 2477.0, 6729.0, 1456.0, 2529.0, 1440.0, 2462.0, 1440.0, 2474.0, 1464.0, 2504.0, 1436.0, 2467.0, 1410.0, 2445.0, 1438.0, 2513.0, 1414.0, 6648.0, 2472.0, 1454.0, 2507.0, 1437.0, 2463.0, 1410.0, 2477.0, 1412.0, 2437.0, 1462.0, 2491.0, 1468.0, 2529.0, 1431.0, 2472.0, 6713.0, 1479.0, 2439.0, 1401.0, 2517.0, 1436.0, 2446.0, 1420.0, 2469.0, 1450.0, 2462.0, 1450.0, 2531.0, 1459.0, 2473.0, 1464.0, 2487.0, 1461.0],
      "WindowWidth": [14860.0, 14816.0, 5940.0, 3740.0, 6012.0, 3787.0, 5979.0, 3781.0, 5916.0, 3715.0, 5919.0, 3729.0, 6076.0, 3824.0, 5952.0, 3768.0, 5859.0, 14641.0, 3821.0, 5991.0, 3702.0, 5956.0, 3722.0, 5905.0, 3857.0, 5928.0, 3681.0, 5997.0, 3768.0, 6019.0, 3790.0, 5958.0, 3730.0, 14615.0, 5993.0, 3686.0, 5893.0, 3749.0, 5958.0, 3795.0, 5963.0, 3692.0, 5915.0, 3827.0, 5936.0, 3722.0, 5886.0, 3858.0, 5960.0, 14706.0, 3785.0, 6054.0, 3773.0, 5923.0, 3788.0, 5952.0, 3817.0, 6004.0, 3740.0, 5949.0, 3690.0, 5895.0, 3737.0, 6026.0, 3730.0, 14563.0, 5935.0, 3802.0, 6023.0, 3761.0, 5929.0, 3708.0, 5963.0, 3690.0, 5883.0, 3817.0, 5981.0, 3835.0, 6054.0, 3746.0, 5941.0, 14671.0, 3822.0, 5891.0, 3673.0, 6030.0, 3765.0, 5895.0, 3726.0, 5925.0, 3764.0, 5935.0, 3793.0, 6068.0, 3800.0, 5948.0, 3824.0, 5972.0, 3798.0]
    },
    "slices": {}
  }
}